alpha,weight,partition,length,allowed_residues,multiplicity_vector,runner_counts,allowed_count_difference,quotient_sum,max_part
0,0,,0,1 4,,0 0 0 0 0,0,0,0
0,1,1,1,1 4,1:0:1,0 1 0 0 0,1,0,1
0,2,1 1,2,1 4,1:0:2,0 2 0 0 0,2,0,1
0,3,1 1 1,3,1 4,1:0:3,0 3 0 0 0,3,0,1
0,4,4,1,1 4,4:0:1,0 0 0 0 1,-1,0,4
0,4,1 1 1 1,4,1 4,1:0:4,0 4 0 0 0,4,0,1
0,5,4 1,2,1 4,1:0:1;4:0:1,0 1 0 0 1,0,0,4
0,5,1 1 1 1 1,5,1 4,1:0:5,0 5 0 0 0,5,0,1
0,6,6,1,1 4,1:1:1,0 1 0 0 0,1,1,6
0,6,4 1 1,3,1 4,1:0:2;4:0:1,0 2 0 0 1,1,0,4
0,6,1 1 1 1 1 1,6,1 4,1:0:6,0 6 0 0 0,6,0,1
0,7,6 1,2,1 4,1:0:1;1:1:1,0 2 0 0 0,2,1,6
0,7,4 1 1 1,4,1 4,1:0:3;4:0:1,0 3 0 0 1,2,0,4
0,7,1 1 1 1 1 1 1,7,1 4,1:0:7,0 7 0 0 0,7,0,1
0,8,6 1 1,3,1 4,1:0:2;1:1:1,0 3 0 0 0,3,1,6
0,8,4 4,2,1 4,4:0:2,0 0 0 0 2,-2,0,4
0,8,4 1 1 1 1,5,1 4,1:0:4;4:0:1,0 4 0 0 1,3,0,4
0,8,1 1 1 1 1 1 1 1,8,1 4,1:0:8,0 8 0 0 0,8,0,1
0,9,9,1,1 4,4:1:1,0 0 0 0 1,-1,1,9
0,9,6 1 1 1,4,1 4,1:0:3;1:1:1,0 4 0 0 0,4,1,6
0,9,4 4 1,3,1 4,1:0:1;4:0:2,0 1 0 0 2,-1,0,4
0,9,4 1 1 1 1 1,6,1 4,1:0:5;4:0:1,0 5 0 0 1,4,0,4
0,9,1 1 1 1 1 1 1 1 1,9,1 4,1:0:9,0 9 0 0 0,9,0,1
0,10,9 1,2,1 4,1:0:1;4:1:1,0 1 0 0 1,0,1,9
0,10,6 4,2,1 4,1:1:1;4:0:1,0 1 0 0 1,0,1,6
0,10,6 1 1 1 1,5,1 4,1:0:4;1:1:1,0 5 0 0 0,5,1,6
0,10,4 4 1 1,4,1 4,1:0:2;4:0:2,0 2 0 0 2,0,0,4
0,10,4 1 1 1 1 1 1,7,1 4,1:0:6;4:0:1,0 6 0 0 1,5,0,4
0,10,1 1 1 1 1 1 1 1 1 1,10,1 4,1:0:10,0 10 0 0 0,10,0,1
0,11,11,1,1 4,1:2:1,0 1 0 0 0,1,2,11
0,11,9 1 1,3,1 4,1:0:2;4:1:1,0 2 0 0 1,1,1,9
0,11,6 4 1,3,1 4,1:0:1;1:1:1;4:0:1,0 2 0 0 1,1,1,6
0,11,6 1 1 1 1 1,6,1 4,1:0:5;1:1:1,0 6 0 0 0,6,1,6
0,11,4 4 1 1 1,5,1 4,1:0:3;4:0:2,0 3 0 0 2,1,0,4
0,11,4 1 1 1 1 1 1 1,8,1 4,1:0:7;4:0:1,0 7 0 0 1,6,0,4
0,11,1 1 1 1 1 1 1 1 1 1 1,11,1 4,1:0:11,0 11 0 0 0,11,0,1
0,12,11 1,2,1 4,1:0:1;1:2:1,0 2 0 0 0,2,2,11
0,12,9 1 1 1,4,1 4,1:0:3;4:1:1,0 3 0 0 1,2,1,9
0,12,6 6,2,1 4,1:1:2,0 2 0 0 0,2,2,6
0,12,6 4 1 1,4,1 4,1:0:2;1:1:1;4:0:1,0 3 0 0 1,2,1,6
0,12,6 1 1 1 1 1 1,7,1 4,1:0:6;1:1:1,0 7 0 0 0,7,1,6
0,12,4 4 4,3,1 4,4:0:3,0 0 0 0 3,-3,0,4
0,12,4 4 1 1 1 1,6,1 4,1:0:4;4:0:2,0 4 0 0 2,2,0,4
0,12,4 1 1 1 1 1 1 1 1,9,1 4,1:0:8;4:0:1,0 8 0 0 1,7,0,4
0,12,1 1 1 1 1 1 1 1 1 1 1 1,12,1 4,1:0:12,0 12 0 0 0,12,0,1
0,13,11 1 1,3,1 4,1:0:2;1:2:1,0 3 0 0 0,3,2,11
0,13,9 4,2,1 4,4:0:1;4:1:1,0 0 0 0 2,-2,1,9
0,13,9 1 1 1 1,5,1 4,1:0:4;4:1:1,0 4 0 0 1,3,1,9
0,13,6 6 1,3,1 4,1:0:1;1:1:2,0 3 0 0 0,3,2,6
0,13,6 4 1 1 1,5,1 4,1:0:3;1:1:1;4:0:1,0 4 0 0 1,3,1,6
0,13,6 1 1 1 1 1 1 1,8,1 4,1:0:7;1:1:1,0 8 0 0 0,8,1,6
0,13,4 4 4 1,4,1 4,1:0:1;4:0:3,0 1 0 0 3,-2,0,4
0,13,4 4 1 1 1 1 1,7,1 4,1:0:5;4:0:2,0 5 0 0 2,3,0,4
0,13,4 1 1 1 1 1 1 1 1 1,10,1 4,1:0:9;4:0:1,0 9 0 0 1,8,0,4
0,13,1 1 1 1 1 1 1 1 1 1 1 1 1,13,1 4,1:0:13,0 13 0 0 0,13,0,1
0,14,14,1,1 4,4:2:1,0 0 0 0 1,-1,2,14
0,14,11 1 1 1,4,1 4,1:0:3;1:2:1,0 4 0 0 0,4,2,11
0,14,9 4 1,3,1 4,1:0:1;4:0:1;4:1:1,0 1 0 0 2,-1,1,9
0,14,9 1 1 1 1 1,6,1 4,1:0:5;4:1:1,0 5 0 0 1,4,1,9
0,14,6 6 1 1,4,1 4,1:0:2;1:1:2,0 4 0 0 0,4,2,6
0,14,6 4 4,3,1 4,1:1:1;4:0:2,0 1 0 0 2,-1,1,6
0,14,6 4 1 1 1 1,6,1 4,1:0:4;1:1:1;4:0:1,0 5 0 0 1,4,1,6
0,14,6 1 1 1 1 1 1 1 1,9,1 4,1:0:8;1:1:1,0 9 0 0 0,9,1,6
0,14,4 4 4 1 1,5,1 4,1:0:2;4:0:3,0 2 0 0 3,-1,0,4
0,14,4 4 1 1 1 1 1 1,8,1 4,1:0:6;4:0:2,0 6 0 0 2,4,0,4
0,14,4 1 1 1 1 1 1 1 1 1 1,11,1 4,1:0:10;4:0:1,0 10 0 0 1,9,0,4
0,14,1 1 1 1 1 1 1 1 1 1 1 1 1 1,14,1 4,1:0:14,0 14 0 0 0,14,0,1
0,15,14 1,2,1 4,1:0:1;4:2:1,0 1 0 0 1,0,2,14
0,15,11 4,2,1 4,1:2:1;4:0:1,0 1 0 0 1,0,2,11
0,15,11 1 1 1 1,5,1 4,1:0:4;1:2:1,0 5 0 0 0,5,2,11
0,15,9 6,2,1 4,1:1:1;4:1:1,0 1 0 0 1,0,2,9
0,15,9 4 1 1,4,1 4,1:0:2;4:0:1;4:1:1,0 2 0 0 2,0,1,9
0,15,9 1 1 1 1 1 1,7,1 4,1:0:6;4:1:1,0 6 0 0 1,5,1,9
0,15,6 6 1 1 1,5,1 4,1:0:3;1:1:2,0 5 0 0 0,5,2,6
0,15,6 4 4 1,4,1 4,1:0:1;1:1:1;4:0:2,0 2 0 0 2,0,1,6
0,15,6 4 1 1 1 1 1,7,1 4,1:0:5;1:1:1;4:0:1,0 6 0 0 1,5,1,6
0,15,6 1 1 1 1 1 1 1 1 1,10,1 4,1:0:9;1:1:1,0 10 0 0 0,10,1,6
0,15,4 4 4 1 1 1,6,1 4,1:0:3;4:0:3,0 3 0 0 3,0,0,4
0,15,4 4 1 1 1 1 1 1 1,9,1 4,1:0:7;4:0:2,0 7 0 0 2,5,0,4
0,15,4 1 1 1 1 1 1 1 1 1 1 1,12,1 4,1:0:11;4:0:1,0 11 0 0 1,10,0,4
0,15,1 1 1 1 1 1 1 1 1 1 1 1 1 1 1,15,1 4,1:0:15,0 15 0 0 0,15,0,1
0,16,16,1,1 4,1:3:1,0 1 0 0 0,1,3,16
0,16,14 1 1,3,1 4,1:0:2;4:2:1,0 2 0 0 1,1,2,14
0,16,11 4 1,3,1 4,1:0:1;1:2:1;4:0:1,0 2 0 0 1,1,2,11
0,16,11 1 1 1 1 1,6,1 4,1:0:5;1:2:1,0 6 0 0 0,6,2,11
0,16,9 6 1,3,1 4,1:0:1;1:1:1;4:1:1,0 2 0 0 1,1,2,9
0,16,9 4 1 1 1,5,1 4,1:0:3;4:0:1;4:1:1,0 3 0 0 2,1,1,9
0,16,9 1 1 1 1 1 1 1,8,1 4,1:0:7;4:1:1,0 7 0 0 1,6,1,9
0,16,6 6 4,3,1 4,1:1:2;4:0:1,0 2 0 0 1,1,2,6
0,16,6 6 1 1 1 1,6,1 4,1:0:4;1:1:2,0 6 0 0 0,6,2,6
0,16,6 4 4 1 1,5,1 4,1:0:2;1:1:1;4:0:2,0 3 0 0 2,1,1,6
0,16,6 4 1 1 1 1 1 1,8,1 4,1:0:6;1:1:1;4:0:1,0 7 0 0 1,6,1,6
0,16,6 1 1 1 1 1 1 1 1 1 1,11,1 4,1:0:10;1:1:1,0 11 0 0 0,11,1,6
0,16,4 4 4 4,4,1 4,4:0:4,0 0 0 0 4,-4,0,4
0,16,4 4 4 1 1 1 1,7,1 4,1:0:4;4:0:3,0 4 0 0 3,1,0,4
0,16,4 4 1 1 1 1 1 1 1 1,10,1 4,1:0:8;4:0:2,0 8 0 0 2,6,0,4
0,16,4 1 1 1 1 1 1 1 1 1 1 1 1,13,1 4,1:0:12;4:0:1,0 12 0 0 1,11,0,4
0,16,1 1 1 1 1 1 1 1 1 1 1 1 1 1 1 1,16,1 4,1:0:16,0 16 0 0 0,16,0,1
0,17,16 1,2,1 4,1:0:1;1:3:1,0 2 0 0 0,2,3,16
0,17,14 1 1 1,4,1 4,1:0:3;4:2:1,0 3 0 0 1,2,2,14
0,17,11 6,2,1 4,1:1:1;1:2:1,0 2 0 0 0,2,3,11
0,17,11 4 1 1,4,1 4,1:0:2;1:2:1;4:0:1,0 3 0 0 1,2,2,11
0,17,11 1 1 1 1 1 1,7,1 4,1:0:6;1:2:1,0 7 0 0 0,7,2,11
0,17,9 6 1 1,4,1 4,1:0:2;1:1:1;4:1:1,0 3 0 0 1,2,2,9
0,17,9 4 4,3,1 4,4:0:2;4:1:1,0 0 0 0 3,-3,1,9
0,17,9 4 1 1 1 1,6,1 4,1:0:4;4:0:1;4:1:1,0 4 0 0 2,2,1,9
0,17,9 1 1 1 1 1 1 1 1,9,1 4,1:0:8;4:1:1,0 8 0 0 1,7,1,9
0,17,6 6 4 1,4,1 4,1:0:1;1:1:2;4:0:1,0 3 0 0 1,2,2,6
0,17,6 6 1 1 1 1 1,7,1 4,1:0:5;1:1:2,0 7 0 0 0,7,2,6
0,17,6 4 4 1 1 1,6,1 4,1:0:3;1:1:1;4:0:2,0 4 0 0 2,2,1,6
0,17,6 4 1 1 1 1 1 1 1,9,1 4,1:0:7;1:1:1;4:0:1,0 8 0 0 1,7,1,6
0,17,6 1 1 1 1 1 1 1 1 1 1 1,12,1 4,1:0:11;1:1:1,0 12 0 0 0,12,1,6
0,17,4 4 4 4 1,5,1 4,1:0:1;4:0:4,0 1 0 0 4,-3,0,4
0,17,4 4 4 1 1 1 1 1,8,1 4,1:0:5;4:0:3,0 5 0 0 3,2,0,4
0,17,4 4 1 1 1 1 1 1 1 1 1,11,1 4,1:0:9;4:0:2,0 9 0 0 2,7,0,4
0,17,4 1 1 1 1 1 1 1 1 1 1 1 1 1,14,1 4,1:0:13;4:0:1,0 13 0 0 1,12,0,4
0,17,1 1 1 1 1 1 1 1 1 1 1 1 1 1 1 1 1,17,1 4,1:0:17,0 17 0 0 0,17,0,1
0,18,16 1 1,3,1 4,1:0:2;1:3:1,0 3 0 0 0,3,3,16
0,18,14 4,2,1 4,4:0:1;4:2:1,0 0 0 0 2,-2,2,14
0,18,14 1 1 1 1,5,1 4,1:0:4;4:2:1,0 4 0 0 1,3,2,14
0,18,11 6 1,3,1 4,1:0:1;1:1:1;1:2:1,0 3 0 0 0,3,3,11
0,18,11 4 1 1 1,5,1 4,1:0:3;1:2:1;4:0:1,0 4 0 0 1,3,2,11
0,18,11 1 1 1 1 1 1 1,8,1 4,1:0:7;1:2:1,0 8 0 0 0,8,2,11
0,18,9 9,2,1 4,4:1:2,0 0 0 0 2,-2,2,9
0,18,9 6 1 1 1,5,1 4,1:0:3;1:1:1;4:1:1,0 4 0 0 1,3,2,9
0,18,9 4 4 1,4,1 4,1:0:1;4:0:2;4:1:1,0 1 0 0 3,-2,1,9
0,18,9 4 1 1 1 1 1,7,1 4,1:0:5;4:0:1;4:1:1,0 5 0 0 2,3,1,9
0,18,9 1 1 1 1 1 1 1 1 1,10,1 4,1:0:9;4:1:1,0 9 0 0 1,8,1,9
0,18,6 6 6,3,1 4,1:1:3,0 3 0 0 0,3,3,6
0,18,6 6 4 1 1,5,1 4,1:0:2;1:1:2;4:0:1,0 4 0 0 1,3,2,6
0,18,6 6 1 1 1 1 1 1,8,1 4,1:0:6;1:1:2,0 8 0 0 0,8,2,6
0,18,6 4 4 4,4,1 4,1:1:1;4:0:3,0 1 0 0 3,-2,1,6
0,18,6 4 4 1 1 1 1,7,1 4,1:0:4;1:1:1;4:0:2,0 5 0 0 2,3,1,6
0,18,6 4 1 1 1 1 1 1 1 1,10,1 4,1:0:8;1:1:1;4:0:1,0 9 0 0 1,8,1,6
0,18,6 1 1 1 1 1 1 1 1 1 1 1 1,13,1 4,1:0:12;1:1:1,0 13 0 0 0,13,1,6
0,18,4 4 4 4 1 1,6,1 4,1:0:2;4:0:4,0 2 0 0 4,-2,0,4
0,18,4 4 4 1 1 1 1 1 1,9,1 4,1:0:6;4:0:3,0 6 0 0 3,3,0,4
0,18,4 4 1 1 1 1 1 1 1 1 1 1,12,1 4,1:0:10;4:0:2,0 10 0 0 2,8,0,4
0,18,4 1 1 1 1 1 1 1 1 1 1 1 1 1 1,15,1 4,1:0:14;4:0:1,0 14 0 0 1,13,0,4
0,18,1 1 1 1 1 1 1 1 1 1 1 1 1 1 1 1 1 1,18,1 4,1:0:18,0 18 0 0 0,18,0,1
0,19,19,1,1 4,4:3:1,0 0 0 0 1,-1,3,19
0,19,16 1 1 1,4,1 4,1:0:3;1:3:1,0 4 0 0 0,4,3,16
0,19,14 4 1,3,1 4,1:0:1;4:0:1;4:2:1,0 1 0 0 2,-1,2,14
0,19,14 1 1 1 1 1,6,1 4,1:0:5;4:2:1,0 5 0 0 1,4,2,14
0,19,11 6 1 1,4,1 4,1:0:2;1:1:1;1:2:1,0 4 0 0 0,4,3,11
0,19,11 4 4,3,1 4,1:2:1;4:0:2,0 1 0 0 2,-1,2,11
0,19,11 4 1 1 1 1,6,1 4,1:0:4;1:2:1;4:0:1,0 5 0 0 1,4,2,11
0,19,11 1 1 1 1 1 1 1 1,9,1 4,1:0:8;1:2:1,0 9 0 0 0,9,2,11
0,19,9 9 1,3,1 4,1:0:1;4:1:2,0 1 0 0 2,-1,2,9
0,19,9 6 4,3,1 4,1:1:1;4:0:1;4:1:1,0 1 0 0 2,-1,2,9
0,19,9 6 1 1 1 1,6,1 4,1:0:4;1:1:1;4:1:1,0 5 0 0 1,4,2,9
0,19,9 4 4 1 1,5,1 4,1:0:2;4:0:2;4:1:1,0 2 0 0 3,-1,1,9
0,19,9 4 1 1 1 1 1 1,8,1 4,1:0:6;4:0:1;4:1:1,0 6 0 0 2,4,1,9
0,19,9 1 1 1 1 1 1 1 1 1 1,11,1 4,1:0:10;4:1:1,0 10 0 0 1,9,1,9
0,19,6 6 6 1,4,1 4,1:0:1;1:1:3,0 4 0 0 0,4,3,6
0,19,6 6 4 1 1 1,6,1 4,1:0:3;1:1:2;4:0:1,0 5 0 0 1,4,2,6
0,19,6 6 1 1 1 1 1 1 1,9,1 4,1:0:7;1:1:2,0 9 0 0 0,9,2,6
0,19,6 4 4 4 1,5,1 4,1:0:1;1:1:1;4:0:3,0 2 0 0 3,-1,1,6
0,19,6 4 4 1 1 1 1 1,8,1 4,1:0:5;1:1:1;4:0:2,0 6 0 0 2,4,1,6
0,19,6 4 1 1 1 1 1 1 1 1 1,11,1 4,1:0:9;1:1:1;4:0:1,0 10 0 0 1,9,1,6
0,19,6 1 1 1 1 1 1 1 1 1 1 1 1 1,14,1 4,1:0:13;1:1:1,0 14 0 0 0,14,1,6
0,19,4 4 4 4 1 1 1,7,1 4,1:0:3;4:0:4,0 3 0 0 4,-1,0,4
0,19,4 4 4 1 1 1 1 1 1 1,10,1 4,1:0:7;4:0:3,0 7 0 0 3,4,0,4
0,19,4 4 1 1 1 1 1 1 1 1 1 1 1,13,1 4,1:0:11;4:0:2,0 11 0 0 2,9,0,4
0,19,4 1 1 1 1 1 1 1 1 1 1 1 1 1 1 1,16,1 4,1:0:15;4:0:1,0 15 0 0 1,14,0,4
0,19,1 1 1 1 1 1 1 1 1 1 1 1 1 1 1 1 1 1 1,19,1 4,1:0:19,0 19 0 0 0,19,0,1
0,20,19 1,2,1 4,1:0:1;4:3:1,0 1 0 0 1,0,3,19
0,20,16 4,2,1 4,1:3:1;4:0:1,0 1 0 0 1,0,3,16
0,20,16 1 1 1 1,5,1 4,1:0:4;1:3:1,0 5 0 0 0,5,3,16
0,20,14 6,2,1 4,1:1:1;4:2:1,0 1 0 0 1,0,3,14
0,20,14 4 1 1,4,1 4,1:0:2;4:0:1;4:2:1,0 2 0 0 2,0,2,14
0,20,14 1 1 1 1 1 1,7,1 4,1:0:6;4:2:1,0 6 0 0 1,5,2,14
0,20,11 9,2,1 4,1:2:1;4:1:1,0 1 0 0 1,0,3,11
0,20,11 6 1 1 1,5,1 4,1:0:3;1:1:1;1:2:1,0 5 0 0 0,5,3,11
0,20,11 4 4 1,4,1 4,1:0:1;1:2:1;4:0:2,0 2 0 0 2,0,2,11
0,20,11 4 1 1 1 1 1,7,1 4,1:0:5;1:2:1;4:0:1,0 6 0 0 1,5,2,11
0,20,11 1 1 1 1 1 1 1 1 1,10,1 4,1:0:9;1:2:1,0 10 0 0 0,10,2,11
0,20,9 9 1 1,4,1 4,1:0:2;4:1:2,0 2 0 0 2,0,2,9
0,20,9 6 4 1,4,1 4,1:0:1;1:1:1;4:0:1;4:1:1,0 2 0 0 2,0,2,9
0,20,9 6 1 1 1 1 1,7,1 4,1:0:5;1:1:1;4:1:1,0 6 0 0 1,5,2,9
0,20,9 4 4 1 1 1,6,1 4,1:0:3;4:0:2;4:1:1,0 3 0 0 3,0,1,9
0,20,9 4 1 1 1 1 1 1 1,9,1 4,1:0:7;4:0:1;4:1:1,0 7 0 0 2,5,1,9
0,20,9 1 1 1 1 1 1 1 1 1 1 1,12,1 4,1:0:11;4:1:1,0 11 0 0 1,10,1,9
0,20,6 6 6 1 1,5,1 4,1:0:2;1:1:3,0 5 0 0 0,5,3,6
0,20,6 6 4 4,4,1 4,1:1:2;4:0:2,0 2 0 0 2,0,2,6
0,20,6 6 4 1 1 1 1,7,1 4,1:0:4;1:1:2;4:0:1,0 6 0 0 1,5,2,6
0,20,6 6 1 1 1 1 1 1 1 1,10,1 4,1:0:8;1:1:2,0 10 0 0 0,10,2,6
0,20,6 4 4 4 1 1,6,1 4,1:0:2;1:1:1;4:0:3,0 3 0 0 3,0,1,6
0,20,6 4 4 1 1 1 1 1 1,9,1 4,1:0:6;1:1:1;4:0:2,0 7 0 0 2,5,1,6
0,20,6 4 1 1 1 1 1 1 1 1 1 1,12,1 4,1:0:10;1:1:1;4:0:1,0 11 0 0 1,10,1,6
0,20,6 1 1 1 1 1 1 1 1 1 1 1 1 1 1,15,1 4,1:0:14;1:1:1,0 15 0 0 0,15,1,6
0,20,4 4 4 4 4,5,1 4,4:0:5,0 0 0 0 5,-5,0,4
0,20,4 4 4 4 1 1 1 1,8,1 4,1:0:4;4:0:4,0 4 0 0 4,0,0,4
0,20,4 4 4 1 1 1 1 1 1 1 1,11,1 4,1:0:8;4:0:3,0 8 0 0 3,5,0,4
0,20,4 4 1 1 1 1 1 1 1 1 1 1 1 1,14,1 4,1:0:12;4:0:2,0 12 0 0 2,10,0,4
0,20,4 1 1 1 1 1 1 1 1 1 1 1 1 1 1 1 1,17,1 4,1:0:16;4:0:1,0 16 0 0 1,15,0,4
0,20,1 1 1 1 1 1 1 1 1 1 1 1 1 1 1 1 1 1 1 1,20,1 4,1:0:20,0 20 0 0 0,20,0,1
0,21,21,1,1 4,1:4:1,0 1 0 0 0,1,4,21
0,21,19 1 1,3,1 4,1:0:2;4:3:1,0 2 0 0 1,1,3,19
0,21,16 4 1,3,1 4,1:0:1;1:3:1;4:0:1,0 2 0 0 1,1,3,16
0,21,16 1 1 1 1 1,6,1 4,1:0:5;1:3:1,0 6 0 0 0,6,3,16
0,21,14 6 1,3,1 4,1:0:1;1:1:1;4:2:1,0 2 0 0 1,1,3,14
0,21,14 4 1 1 1,5,1 4,1:0:3;4:0:1;4:2:1,0 3 0 0 2,1,2,14
0,21,14 1 1 1 1 1 1 1,8,1 4,1:0:7;4:2:1,0 7 0 0 1,6,2,14
0,21,11 9 1,3,1 4,1:0:1;1:2:1;4:1:1,0 2 0 0 1,1,3,11
0,21,11 6 4,3,1 4,1:1:1;1:2:1;4:0:1,0 2 0 0 1,1,3,11
0,21,11 6 1 1 1 1,6,1 4,1:0:4;1:1:1;1:2:1,0 6 0 0 0,6,3,11
0,21,11 4 4 1 1,5,1 4,1:0:2;1:2:1;4:0:2,0 3 0 0 2,1,2,11
0,21,11 4 1 1 1 1 1 1,8,1 4,1:0:6;1:2:1;4:0:1,0 7 0 0 1,6,2,11
0,21,11 1 1 1 1 1 1 1 1 1 1,11,1 4,1:0:10;1:2:1,0 11 0 0 0,11,2,11
0,21,9 9 1 1 1,5,1 4,1:0:3;4:1:2,0 3 0 0 2,1,2,9
0,21,9 6 6,3,1 4,1:1:2;4:1:1,0 2 0 0 1,1,3,9
0,21,9 6 4 1 1,5,1 4,1:0:2;1:1:1;4:0:1;4:1:1,0 3 0 0 2,1,2,9
0,21,9 6 1 1 1 1 1 1,8,1 4,1:0:6;1:1:1;4:1:1,0 7 0 0 1,6,2,9
0,21,9 4 4 4,4,1 4,4:0:3;4:1:1,0 0 0 0 4,-4,1,9
0,21,9 4 4 1 1 1 1,7,1 4,1:0:4;4:0:2;4:1:1,0 4 0 0 3,1,1,9
0,21,9 4 1 1 1 1 1 1 1 1,10,1 4,1:0:8;4:0:1;4:1:1,0 8 0 0 2,6,1,9
0,21,9 1 1 1 1 1 1 1 1 1 1 1 1,13,1 4,1:0:12;4:1:1,0 12 0 0 1,11,1,9
0,21,6 6 6 1 1 1,6,1 4,1:0:3;1:1:3,0 6 0 0 0,6,3,6
0,21,6 6 4 4 1,5,1 4,1:0:1;1:1:2;4:0:2,0 3 0 0 2,1,2,6
0,21,6 6 4 1 1 1 1 1,8,1 4,1:0:5;1:1:2;4:0:1,0 7 0 0 1,6,2,6
0,21,6 6 1 1 1 1 1 1 1 1 1,11,1 4,1:0:9;1:1:2,0 11 0 0 0,11,2,6
0,21,6 4 4 4 1 1 1,7,1 4,1:0:3;1:1:1;4:0:3,0 4 0 0 3,1,1,6
0,21,6 4 4 1 1 1 1 1 1 1,10,1 4,1:0:7;1:1:1;4:0:2,0 8 0 0 2,6,1,6
0,21,6 4 1 1 1 1 1 1 1 1 1 1 1,13,1 4,1:0:11;1:1:1;4:0:1,0 12 0 0 1,11,1,6
0,21,6 1 1 1 1 1 1 1 1 1 1 1 1 1 1 1,16,1 4,1:0:15;1:1:1,0 16 0 0 0,16,1,6
0,21,4 4 4 4 4 1,6,1 4,1:0:1;4:0:5,0 1 0 0 5,-4,0,4
0,21,4 4 4 4 1 1 1 1 1,9,1 4,1:0:5;4:0:4,0 5 0 0 4,1,0,4
0,21,4 4 4 1 1 1 1 1 1 1 1 1,12,1 4,1:0:9;4:0:3,0 9 0 0 3,6,0,4
0,21,4 4 1 1 1 1 1 1 1 1 1 1 1 1 1,15,1 4,1:0:13;4:0:2,0 13 0 0 2,11,0,4
0,21,4 1 1 1 1 1 1 1 1 1 1 1 1 1 1 1 1 1,18,1 4,1:0:17;4:0:1,0 17 0 0 1,16,0,4
0,21,1 1 1 1 1 1 1 1 1 1 1 1 1 1 1 1 1 1 1 1 1,21,1 4,1:0:21,0 21 0 0 0,21,0,1
0,22,21 1,2,1 4,1:0:1;1:4:1,0 2 0 0 0,2,4,21
0,22,19 1 1 1,4,1 4,1:0:3;4:3:1,0 3 0 0 1,2,3,19
0,22,16 6,2,1 4,1:1:1;1:3:1,0 2 0 0 0,2,4,16
0,22,16 4 1 1,4,1 4,1:0:2;1:3:1;4:0:1,0 3 0 0 1,2,3,16
0,22,16 1 1 1 1 1 1,7,1 4,1:0:6;1:3:1,0 7 0 0 0,7,3,16
0,22,14 6 1 1,4,1 4,1:0:2;1:1:1;4:2:1,0 3 0 0 1,2,3,14
0,22,14 4 4,3,1 4,4:0:2;4:2:1,0 0 0 0 3,-3,2,14
0,22,14 4 1 1 1 1,6,1 4,1:0:4;4:0:1;4:2:1,0 4 0 0 2,2,2,14
0,22,14 1 1 1 1 1 1 1 1,9,1 4,1:0:8;4:2:1,0 8 0 0 1,7,2,14
0,22,11 11,2,1 4,1:2:2,0 2 0 0 0,2,4,11
0,22,11 9 1 1,4,1 4,1:0:2;1:2:1;4:1:1,0 3 0 0 1,2,3,11
0,22,11 6 4 1,4,1 4,1:0:1;1:1:1;1:2:1;4:0:1,0 3 0 0 1,2,3,11
0,22,11 6 1 1 1 1 1,7,1 4,1:0:5;1:1:1;1:2:1,0 7 0 0 0,7,3,11
0,22,11 4 4 1 1 1,6,1 4,1:0:3;1:2:1;4:0:2,0 4 0 0 2,2,2,11
0,22,11 4 1 1 1 1 1 1 1,9,1 4,1:0:7;1:2:1;4:0:1,0 8 0 0 1,7,2,11
0,22,11 1 1 1 1 1 1 1 1 1 1 1,12,1 4,1:0:11;1:2:1,0 12 0 0 0,12,2,11
0,22,9 9 4,3,1 4,4:0:1;4:1:2,0 0 0 0 3,-3,2,9
0,22,9 9 1 1 1 1,6,1 4,1:0:4;4:1:2,0 4 0 0 2,2,2,9
0,22,9 6 6 1,4,1 4,1:0:1;1:1:2;4:1:1,0 3 0 0 1,2,3,9
0,22,9 6 4 1 1 1,6,1 4,1:0:3;1:1:1;4:0:1;4:1:1,0 4 0 0 2,2,2,9
0,22,9 6 1 1 1 1 1 1 1,9,1 4,1:0:7;1:1:1;4:1:1,0 8 0 0 1,7,2,9
0,22,9 4 4 4 1,5,1 4,1:0:1;4:0:3;4:1:1,0 1 0 0 4,-3,1,9
0,22,9 4 4 1 1 1 1 1,8,1 4,1:0:5;4:0:2;4:1:1,0 5 0 0 3,2,1,9
0,22,9 4 1 1 1 1 1 1 1 1 1,11,1 4,1:0:9;4:0:1;4:1:1,0 9 0 0 2,7,1,9
0,22,9 1 1 1 1 1 1 1 1 1 1 1 1 1,14,1 4,1:0:13;4:1:1,0 13 0 0 1,12,1,9
0,22,6 6 6 4,4,1 4,1:1:3;4:0:1,0 3 0 0 1,2,3,6
0,22,6 6 6 1 1 1 1,7,1 4,1:0:4;1:1:3,0 7 0 0 0,7,3,6
0,22,6 6 4 4 1 1,6,1 4,1:0:2;1:1:2;4:0:2,0 4 0 0 2,2,2,6
0,22,6 6 4 1 1 1 1 1 1,9,1 4,1:0:6;1:1:2;4:0:1,0 8 0 0 1,7,2,6
0,22,6 6 1 1 1 1 1 1 1 1 1 1,12,1 4,1:0:10;1:1:2,0 12 0 0 0,12,2,6
0,22,6 4 4 4 4,5,1 4,1:1:1;4:0:4,0 1 0 0 4,-3,1,6
0,22,6 4 4 4 1 1 1 1,8,1 4,1:0:4;1:1:1;4:0:3,0 5 0 0 3,2,1,6
0,22,6 4 4 1 1 1 1 1 1 1 1,11,1 4,1:0:8;1:1:1;4:0:2,0 9 0 0 2,7,1,6
0,22,6 4 1 1 1 1 1 1 1 1 1 1 1 1,14,1 4,1:0:12;1:1:1;4:0:1,0 13 0 0 1,12,1,6
0,22,6 1 1 1 1 1 1 1 1 1 1 1 1 1 1 1 1,17,1 4,1:0:16;1:1:1,0 17 0 0 0,17,1,6
0,22,4 4 4 4 4 1 1,7,1 4,1:0:2;4:0:5,0 2 0 0 5,-3,0,4
0,22,4 4 4 4 1 1 1 1 1 1,10,1 4,1:0:6;4:0:4,0 6 0 0 4,2,0,4
0,22,4 4 4 1 1 1 1 1 1 1 1 1 1,13,1 4,1:0:10;4:0:3,0 10 0 0 3,7,0,4
0,22,4 4 1 1 1 1 1 1 1 1 1 1 1 1 1 1,16,1 4,1:0:14;4:0:2,0 14 0 0 2,12,0,4
0,22,4 1 1 1 1 1 1 1 1 1 1 1 1 1 1 1 1 1 1,19,1 4,1:0:18;4:0:1,0 18 0 0 1,17,0,4
0,22,1 1 1 1 1 1 1 1 1 1 1 1 1 1 1 1 1 1 1 1 1 1,22,1 4,1:0:22,0 22 0 0 0,22,0,1
0,23,21 1 1,3,1 4,1:0:2;1:4:1,0 3 0 0 0,3,4,21
0,23,19 4,2,1 4,4:0:1;4:3:1,0 0 0 0 2,-2,3,19
0,23,19 1 1 1 1,5,1 4,1:0:4;4:3:1,0 4 0 0 1,3,3,19
0,23,16 6 1,3,1 4,1:0:1;1:1:1;1:3:1,0 3 0 0 0,3,4,16
0,23,16 4 1 1 1,5,1 4,1:0:3;1:3:1;4:0:1,0 4 0 0 1,3,3,16
0,23,16 1 1 1 1 1 1 1,8,1 4,1:0:7;1:3:1,0 8 0 0 0,8,3,16
0,23,14 9,2,1 4,4:1:1;4:2:1,0 0 0 0 2,-2,3,14
0,23,14 6 1 1 1,5,1 4,1:0:3;1:1:1;4:2:1,0 4 0 0 1,3,3,14
0,23,14 4 4 1,4,1 4,1:0:1;4:0:2;4:2:1,0 1 0 0 3,-2,2,14
0,23,14 4 1 1 1 1 1,7,1 4,1:0:5;4:0:1;4:2:1,0 5 0 0 2,3,2,14
0,23,14 1 1 1 1 1 1 1 1 1,10,1 4,1:0:9;4:2:1,0 9 0 0 1,8,2,14
0,23,11 11 1,3,1 4,1:0:1;1:2:2,0 3 0 0 0,3,4,11
0,23,11 9 1 1 1,5,1 4,1:0:3;1:2:1;4:1:1,0 4 0 0 1,3,3,11
0,23,11 6 6,3,1 4,1:1:2;1:2:1,0 3 0 0 0,3,4,11
0,23,11 6 4 1 1,5,1 4,1:0:2;1:1:1;1:2:1;4:0:1,0 4 0 0 1,3,3,11
0,23,11 6 1 1 1 1 1 1,8,1 4,1:0:6;1:1:1;1:2:1,0 8 0 0 0,8,3,11
0,23,11 4 4 4,4,1 4,1:2:1;4:0:3,0 1 0 0 3,-2,2,11
0,23,11 4 4 1 1 1 1,7,1 4,1:0:4;1:2:1;4:0:2,0 5 0 0 2,3,2,11
0,23,11 4 1 1 1 1 1 1 1 1,10,1 4,1:0:8;1:2:1;4:0:1,0 9 0 0 1,8,2,11
0,23,11 1 1 1 1 1 1 1 1 1 1 1 1,13,1 4,1:0:12;1:2:1,0 13 0 0 0,13,2,11
0,23,9 9 4 1,4,1 4,1:0:1;4:0:1;4:1:2,0 1 0 0 3,-2,2,9
0,23,9 9 1 1 1 1 1,7,1 4,1:0:5;4:1:2,0 5 0 0 2,3,2,9
0,23,9 6 6 1 1,5,1 4,1:0:2;1:1:2;4:1:1,0 4 0 0 1,3,3,9
0,23,9 6 4 4,4,1 4,1:1:1;4:0:2;4:1:1,0 1 0 0 3,-2,2,9
0,23,9 6 4 1 1 1 1,7,1 4,1:0:4;1:1:1;4:0:1;4:1:1,0 5 0 0 2,3,2,9
0,23,9 6 1 1 1 1 1 1 1 1,10,1 4,1:0:8;1:1:1;4:1:1,0 9 0 0 1,8,2,9
0,23,9 4 4 4 1 1,6,1 4,1:0:2;4:0:3;4:1:1,0 2 0 0 4,-2,1,9
0,23,9 4 4 1 1 1 1 1 1,9,1 4,1:0:6;4:0:2;4:1:1,0 6 0 0 3,3,1,9
0,23,9 4 1 1 1 1 1 1 1 1 1 1,12,1 4,1:0:10;4:0:1;4:1:1,0 10 0 0 2,8,1,9
0,23,9 1 1 1 1 1 1 1 1 1 1 1 1 1 1,15,1 4,1:0:14;4:1:1,0 14 0 0 1,13,1,9
0,23,6 6 6 4 1,5,1 4,1:0:1;1:1:3;4:0:1,0 4 0 0 1,3,3,6
0,23,6 6 6 1 1 1 1 1,8,1 4,1:0:5;1:1:3,0 8 0 0 0,8,3,6
0,23,6 6 4 4 1 1 1,7,1 4,1:0:3;1:1:2;4:0:2,0 5 0 0 2,3,2,6
0,23,6 6 4 1 1 1 1 1 1 1,10,1 4,1:0:7;1:1:2;4:0:1,0 9 0 0 1,8,2,6
0,23,6 6 1 1 1 1 1 1 1 1 1 1 1,13,1 4,1:0:11;1:1:2,0 13 0 0 0,13,2,6
0,23,6 4 4 4 4 1,6,1 4,1:0:1;1:1:1;4:0:4,0 2 0 0 4,-2,1,6
0,23,6 4 4 4 1 1 1 1 1,9,1 4,1:0:5;1:1:1;4:0:3,0 6 0 0 3,3,1,6
0,23,6 4 4 1 1 1 1 1 1 1 1 1,12,1 4,1:0:9;1:1:1;4:0:2,0 10 0 0 2,8,1,6
0,23,6 4 1 1 1 1 1 1 1 1 1 1 1 1 1,15,1 4,1:0:13;1:1:1;4:0:1,0 14 0 0 1,13,1,6
0,23,6 1 1 1 1 1 1 1 1 1 1 1 1 1 1 1 1 1,18,1 4,1:0:17;1:1:1,0 18 0 0 0,18,1,6
0,23,4 4 4 4 4 1 1 1,8,1 4,1:0:3;4:0:5,0 3 0 0 5,-2,0,4
0,23,4 4 4 4 1 1 1 1 1 1 1,11,1 4,1:0:7;4:0:4,0 7 0 0 4,3,0,4
0,23,4 4 4 1 1 1 1 1 1 1 1 1 1 1,14,1 4,1:0:11;4:0:3,0 11 0 0 3,8,0,4
0,23,4 4 1 1 1 1 1 1 1 1 1 1 1 1 1 1 1,17,1 4,1:0:15;4:0:2,0 15 0 0 2,13,0,4
0,23,4 1 1 1 1 1 1 1 1 1 1 1 1 1 1 1 1 1 1 1,20,1 4,1:0:19;4:0:1,0 19 0 0 1,18,0,4
0,23,1 1 1 1 1 1 1 1 1 1 1 1 1 1 1 1 1 1 1 1 1 1 1,23,1 4,1:0:23,0 23 0 0 0,23,0,1
0,24,24,1,1 4,4:4:1,0 0 0 0 1,-1,4,24
0,24,21 1 1 1,4,1 4,1:0:3;1:4:1,0 4 0 0 0,4,4,21
0,24,19 4 1,3,1 4,1:0:1;4:0:1;4:3:1,0 1 0 0 2,-1,3,19
0,24,19 1 1 1 1 1,6,1 4,1:0:5;4:3:1,0 5 0 0 1,4,3,19
0,24,16 6 1 1,4,1 4,1:0:2;1:1:1;1:3:1,0 4 0 0 0,4,4,16
0,24,16 4 4,3,1 4,1:3:1;4:0:2,0 1 0 0 2,-1,3,16
0,24,16 4 1 1 1 1,6,1 4,1:0:4;1:3:1;4:0:1,0 5 0 0 1,4,3,16
0,24,16 1 1 1 1 1 1 1 1,9,1 4,1:0:8;1:3:1,0 9 0 0 0,9,3,16
0,24,14 9 1,3,1 4,1:0:1;4:1:1;4:2:1,0 1 0 0 2,-1,3,14
0,24,14 6 4,3,1 4,1:1:1;4:0:1;4:2:1,0 1 0 0 2,-1,3,14
0,24,14 6 1 1 1 1,6,1 4,1:0:4;1:1:1;4:2:1,0 5 0 0 1,4,3,14
0,24,14 4 4 1 1,5,1 4,1:0:2;4:0:2;4:2:1,0 2 0 0 3,-1,2,14
0,24,14 4 1 1 1 1 1 1,8,1 4,1:0:6;4:0:1;4:2:1,0 6 0 0 2,4,2,14
0,24,14 1 1 1 1 1 1 1 1 1 1,11,1 4,1:0:10;4:2:1,0 10 0 0 1,9,2,14
0,24,11 11 1 1,4,1 4,1:0:2;1:2:2,0 4 0 0 0,4,4,11
0,24,11 9 4,3,1 4,1:2:1;4:0:1;4:1:1,0 1 0 0 2,-1,3,11
0,24,11 9 1 1 1 1,6,1 4,1:0:4;1:2:1;4:1:1,0 5 0 0 1,4,3,11
0,24,11 6 6 1,4,1 4,1:0:1;1:1:2;1:2:1,0 4 0 0 0,4,4,11
0,24,11 6 4 1 1 1,6,1 4,1:0:3;1:1:1;1:2:1;4:0:1,0 5 0 0 1,4,3,11
0,24,11 6 1 1 1 1 1 1 1,9,1 4,1:0:7;1:1:1;1:2:1,0 9 0 0 0,9,3,11
0,24,11 4 4 4 1,5,1 4,1:0:1;1:2:1;4:0:3,0 2 0 0 3,-1,2,11
0,24,11 4 4 1 1 1 1 1,8,1 4,1:0:5;1:2:1;4:0:2,0 6 0 0 2,4,2,11
0,24,11 4 1 1 1 1 1 1 1 1 1,11,1 4,1:0:9;1:2:1;4:0:1,0 10 0 0 1,9,2,11
0,24,11 1 1 1 1 1 1 1 1 1 1 1 1 1,14,1 4,1:0:13;1:2:1,0 14 0 0 0,14,2,11
0,24,9 9 6,3,1 4,1:1:1;4:1:2,0 1 0 0 2,-1,3,9
0,24,9 9 4 1 1,5,1 4,1:0:2;4:0:1;4:1:2,0 2 0 0 3,-1,2,9
0,24,9 9 1 1 1 1 1 1,8,1 4,1:0:6;4:1:2,0 6 0 0 2,4,2,9
0,24,9 6 6 1 1 1,6,1 4,1:0:3;1:1:2;4:1:1,0 5 0 0 1,4,3,9
0,24,9 6 4 4 1,5,1 4,1:0:1;1:1:1;4:0:2;4:1:1,0 2 0 0 3,-1,2,9
0,24,9 6 4 1 1 1 1 1,8,1 4,1:0:5;1:1:1;4:0:1;4:1:1,0 6 0 0 2,4,2,9
0,24,9 6 1 1 1 1 1 1 1 1 1,11,1 4,1:0:9;1:1:1;4:1:1,0 10 0 0 1,9,2,9
0,24,9 4 4 4 1 1 1,7,1 4,1:0:3;4:0:3;4:1:1,0 3 0 0 4,-1,1,9
0,24,9 4 4 1 1 1 1 1 1 1,10,1 4,1:0:7;4:0:2;4:1:1,0 7 0 0 3,4,1,9
0,24,9 4 1 1 1 1 1 1 1 1 1 1 1,13,1 4,1:0:11;4:0:1;4:1:1,0 11 0 0 2,9,1,9
0,24,9 1 1 1 1 1 1 1 1 1 1 1 1 1 1 1,16,1 4,1:0:15;4:1:1,0 15 0 0 1,14,1,9
0,24,6 6 6 6,4,1 4,1:1:4,0 4 0 0 0,4,4,6
0,24,6 6 6 4 1 1,6,1 4,1:0:2;1:1:3;4:0:1,0 5 0 0 1,4,3,6
0,24,6 6 6 1 1 1 1 1 1,9,1 4,1:0:6;1:1:3,0 9 0 0 0,9,3,6
0,24,6 6 4 4 4,5,1 4,1:1:2;4:0:3,0 2 0 0 3,-1,2,6
0,24,6 6 4 4 1 1 1 1,8,1 4,1:0:4;1:1:2;4:0:2,0 6 0 0 2,4,2,6
0,24,6 6 4 1 1 1 1 1 1 1 1,11,1 4,1:0:8;1:1:2;4:0:1,0 10 0 0 1,9,2,6
0,24,6 6 1 1 1 1 1 1 1 1 1 1 1 1,14,1 4,1:0:12;1:1:2,0 14 0 0 0,14,2,6
0,24,6 4 4 4 4 1 1,7,1 4,1:0:2;1:1:1;4:0:4,0 3 0 0 4,-1,1,6
0,24,6 4 4 4 1 1 1 1 1 1,10,1 4,1:0:6;1:1:1;4:0:3,0 7 0 0 3,4,1,6
0,24,6 4 4 1 1 1 1 1 1 1 1 1 1,13,1 4,1:0:10;1:1:1;4:0:2,0 11 0 0 2,9,1,6
0,24,6 4 1 1 1 1 1 1 1 1 1 1 1 1 1 1,16,1 4,1:0:14;1:1:1;4:0:1,0 15 0 0 1,14,1,6
0,24,6 1 1 1 1 1 1 1 1 1 1 1 1 1 1 1 1 1 1,19,1 4,1:0:18;1:1:1,0 19 0 0 0,19,1,6
0,24,4 4 4 4 4 4,6,1 4,4:0:6,0 0 0 0 6,-6,0,4
0,24,4 4 4 4 4 1 1 1 1,9,1 4,1:0:4;4:0:5,0 4 0 0 5,-1,0,4
0,24,4 4 4 4 1 1 1 1 1 1 1 1,12,1 4,1:0:8;4:0:4,0 8 0 0 4,4,0,4
0,24,4 4 4 1 1 1 1 1 1 1 1 1 1 1 1,15,1 4,1:0:12;4:0:3,0 12 0 0 3,9,0,4
0,24,4 4 1 1 1 1 1 1 1 1 1 1 1 1 1 1 1 1,18,1 4,1:0:16;4:0:2,0 16 0 0 2,14,0,4
0,24,4 1 1 1 1 1 1 1 1 1 1 1 1 1 1 1 1 1 1 1 1,21,1 4,1:0:20;4:0:1,0 20 0 0 1,19,0,4
0,24,1 1 1 1 1 1 1 1 1 1 1 1 1 1 1 1 1 1 1 1 1 1 1 1,24,1 4,1:0:24,0 24 0 0 0,24,0,1
0,25,24 1,2,1 4,1:0:1;4:4:1,0 1 0 0 1,0,4,24
0,25,21 4,2,1 4,1:4:1;4:0:1,0 1 0 0 1,0,4,21
0,25,21 1 1 1 1,5,1 4,1:0:4;1:4:1,0 5 0 0 0,5,4,21
0,25,19 6,2,1 4,1:1:1;4:3:1,0 1 0 0 1,0,4,19
0,25,19 4 1 1,4,1 4,1:0:2;4:0:1;4:3:1,0 2 0 0 2,0,3,19
0,25,19 1 1 1 1 1 1,7,1 4,1:0:6;4:3:1,0 6 0 0 1,5,3,19
0,25,16 9,2,1 4,1:3:1;4:1:1,0 1 0 0 1,0,4,16
0,25,16 6 1 1 1,5,1 4,1:0:3;1:1:1;1:3:1,0 5 0 0 0,5,4,16
0,25,16 4 4 1,4,1 4,1:0:1;1:3:1;4:0:2,0 2 0 0 2,0,3,16
0,25,16 4 1 1 1 1 1,7,1 4,1:0:5;1:3:1;4:0:1,0 6 0 0 1,5,3,16
0,25,16 1 1 1 1 1 1 1 1 1,10,1 4,1:0:9;1:3:1,0 10 0 0 0,10,3,16
0,25,14 11,2,1 4,1:2:1;4:2:1,0 1 0 0 1,0,4,14
0,25,14 9 1 1,4,1 4,1:0:2;4:1:1;4:2:1,0 2 0 0 2,0,3,14
0,25,14 6 4 1,4,1 4,1:0:1;1:1:1;4:0:1;4:2:1,0 2 0 0 2,0,3,14
0,25,14 6 1 1 1 1 1,7,1 4,1:0:5;1:1:1;4:2:1,0 6 0 0 1,5,3,14
0,25,14 4 4 1 1 1,6,1 4,1:0:3;4:0:2;4:2:1,0 3 0 0 3,0,2,14
0,25,14 4 1 1 1 1 1 1 1,9,1 4,1:0:7;4:0:1;4:2:1,0 7 0 0 2,5,2,14
0,25,14 1 1 1 1 1 1 1 1 1 1 1,12,1 4,1:0:11;4:2:1,0 11 0 0 1,10,2,14
0,25,11 11 1 1 1,5,1 4,1:0:3;1:2:2,0 5 0 0 0,5,4,11
0,25,11 9 4 1,4,1 4,1:0:1;1:2:1;4:0:1;4:1:1,0 2 0 0 2,0,3,11
0,25,11 9 1 1 1 1 1,7,1 4,1:0:5;1:2:1;4:1:1,0 6 0 0 1,5,3,11
0,25,11 6 6 1 1,5,1 4,1:0:2;1:1:2;1:2:1,0 5 0 0 0,5,4,11
0,25,11 6 4 4,4,1 4,1:1:1;1:2:1;4:0:2,0 2 0 0 2,0,3,11
0,25,11 6 4 1 1 1 1,7,1 4,1:0:4;1:1:1;1:2:1;4:0:1,0 6 0 0 1,5,3,11
0,25,11 6 1 1 1 1 1 1 1 1,10,1 4,1:0:8;1:1:1;1:2:1,0 10 0 0 0,10,3,11
0,25,11 4 4 4 1 1,6,1 4,1:0:2;1:2:1;4:0:3,0 3 0 0 3,0,2,11
0,25,11 4 4 1 1 1 1 1 1,9,1 4,1:0:6;1:2:1;4:0:2,0 7 0 0 2,5,2,11
0,25,11 4 1 1 1 1 1 1 1 1 1 1,12,1 4,1:0:10;1:2:1;4:0:1,0 11 0 0 1,10,2,11
0,25,11 1 1 1 1 1 1 1 1 1 1 1 1 1 1,15,1 4,1:0:14;1:2:1,0 15 0 0 0,15,2,11
0,25,9 9 6 1,4,1 4,1:0:1;1:1:1;4:1:2,0 2 0 0 2,0,3,9
0,25,9 9 4 1 1 1,6,1 4,1:0:3;4:0:1;4:1:2,0 3 0 0 3,0,2,9
0,25,9 9 1 1 1 1 1 1 1,9,1 4,1:0:7;4:1:2,0 7 0 0 2,5,2,9
0,25,9 6 6 4,4,1 4,1:1:2;4:0:1;4:1:1,0 2 0 0 2,0,3,9
0,25,9 6 6 1 1 1 1,7,1 4,1:0:4;1:1:2;4:1:1,0 6 0 0 1,5,3,9
0,25,9 6 4 4 1 1,6,1 4,1:0:2;1:1:1;4:0:2;4:1:1,0 3 0 0 3,0,2,9
0,25,9 6 4 1 1 1 1 1 1,9,1 4,1:0:6;1:1:1;4:0:1;4:1:1,0 7 0 0 2,5,2,9
0,25,9 6 1 1 1 1 1 1 1 1 1 1,12,1 4,1:0:10;1:1:1;4:1:1,0 11 0 0 1,10,2,9
0,25,9 4 4 4 4,5,1 4,4:0:4;4:1:1,0 0 0 0 5,-5,1,9
0,25,9 4 4 4 1 1 1 1,8,1 4,1:0:4;4:0:3;4:1:1,0 4 0 0 4,0,1,9
0,25,9 4 4 1 1 1 1 1 1 1 1,11,1 4,1:0:8;4:0:2;4:1:1,0 8 0 0 3,5,1,9
0,25,9 4 1 1 1 1 1 1 1 1 1 1 1 1,14,1 4,1:0:12;4:0:1;4:1:1,0 12 0 0 2,10,1,9
0,25,9 1 1 1 1 1 1 1 1 1 1 1 1 1 1 1 1,17,1 4,1:0:16;4:1:1,0 16 0 0 1,15,1,9
0,25,6 6 6 6 1,5,1 4,1:0:1;1:1:4,0 5 0 0 0,5,4,6
0,25,6 6 6 4 1 1 1,7,1 4,1:0:3;1:1:3;4:0:1,0 6 0 0 1,5,3,6
0,25,6 6 6 1 1 1 1 1 1 1,10,1 4,1:0:7;1:1:3,0 10 0 0 0,10,3,6
0,25,6 6 4 4 4 1,6,1 4,1:0:1;1:1:2;4:0:3,0 3 0 0 3,0,2,6
0,25,6 6 4 4 1 1 1 1 1,9,1 4,1:0:5;1:1:2;4:0:2,0 7 0 0 2,5,2,6
0,25,6 6 4 1 1 1 1 1 1 1 1 1,12,1 4,1:0:9;1:1:2;4:0:1,0 11 0 0 1,10,2,6
0,25,6 6 1 1 1 1 1 1 1 1 1 1 1 1 1,15,1 4,1:0:13;1:1:2,0 15 0 0 0,15,2,6
0,25,6 4 4 4 4 1 1 1,8,1 4,1:0:3;1:1:1;4:0:4,0 4 0 0 4,0,1,6
0,25,6 4 4 4 1 1 1 1 1 1 1,11,1 4,1:0:7;1:1:1;4:0:3,0 8 0 0 3,5,1,6
0,25,6 4 4 1 1 1 1 1 1 1 1 1 1 1,14,1 4,1:0:11;1:1:1;4:0:2,0 12 0 0 2,10,1,6
0,25,6 4 1 1 1 1 1 1 1 1 1 1 1 1 1 1 1,17,1 4,1:0:15;1:1:1;4:0:1,0 16 0 0 1,15,1,6
0,25,6 1 1 1 1 1 1 1 1 1 1 1 1 1 1 1 1 1 1 1,20,1 4,1:0:19;1:1:1,0 20 0 0 0,20,1,6
0,25,4 4 4 4 4 4 1,7,1 4,1:0:1;4:0:6,0 1 0 0 6,-5,0,4
0,25,4 4 4 4 4 1 1 1 1 1,10,1 4,1:0:5;4:0:5,0 5 0 0 5,0,0,4
0,25,4 4 4 4 1 1 1 1 1 1 1 1 1,13,1 4,1:0:9;4:0:4,0 9 0 0 4,5,0,4
0,25,4 4 4 1 1 1 1 1 1 1 1 1 1 1 1 1,16,1 4,1:0:13;4:0:3,0 13 0 0 3,10,0,4
0,25,4 4 1 1 1 1 1 1 1 1 1 1 1 1 1 1 1 1 1,19,1 4,1:0:17;4:0:2,0 17 0 0 2,15,0,4
0,25,4 1 1 1 1 1 1 1 1 1 1 1 1 1 1 1 1 1 1 1 1 1,22,1 4,1:0:21;4:0:1,0 21 0 0 1,20,0,4
0,25,1 1 1 1 1 1 1 1 1 1 1 1 1 1 1 1 1 1 1 1 1 1 1 1 1,25,1 4,1:0:25,0 25 0 0 0,25,0,1
0,26,26,1,1 4,1:5:1,0 1 0 0 0,1,5,26
0,26,24 1 1,3,1 4,1:0:2;4:4:1,0 2 0 0 1,1,4,24
0,26,21 4 1,3,1 4,1:0:1;1:4:1;4:0:1,0 2 0 0 1,1,4,21
0,26,21 1 1 1 1 1,6,1 4,1:0:5;1:4:1,0 6 0 0 0,6,4,21
0,26,19 6 1,3,1 4,1:0:1;1:1:1;4:3:1,0 2 0 0 1,1,4,19
0,26,19 4 1 1 1,5,1 4,1:0:3;4:0:1;4:3:1,0 3 0 0 2,1,3,19
0,26,19 1 1 1 1 1 1 1,8,1 4,1:0:7;4:3:1,0 7 0 0 1,6,3,19
0,26,16 9 1,3,1 4,1:0:1;1:3:1;4:1:1,0 2 0 0 1,1,4,16
0,26,16 6 4,3,1 4,1:1:1;1:3:1;4:0:1,0 2 0 0 1,1,4,16
0,26,16 6 1 1 1 1,6,1 4,1:0:4;1:1:1;1:3:1,0 6 0 0 0,6,4,16
0,26,16 4 4 1 1,5,1 4,1:0:2;1:3:1;4:0:2,0 3 0 0 2,1,3,16
0,26,16 4 1 1 1 1 1 1,8,1 4,1:0:6;1:3:1;4:0:1,0 7 0 0 1,6,3,16
0,26,16 1 1 1 1 1 1 1 1 1 1,11,1 4,1:0:10;1:3:1,0 11 0 0 0,11,3,16
0,26,14 11 1,3,1 4,1:0:1;1:2:1;4:2:1,0 2 0 0 1,1,4,14
0,26,14 9 1 1 1,5,1 4,1:0:3;4:1:1;4:2:1,0 3 0 0 2,1,3,14
0,26,14 6 6,3,1 4,1:1:2;4:2:1,0 2 0 0 1,1,4,14
0,26,14 6 4 1 1,5,1 4,1:0:2;1:1:1;4:0:1;4:2:1,0 3 0 0 2,1,3,14
0,26,14 6 1 1 1 1 1 1,8,1 4,1:0:6;1:1:1;4:2:1,0 7 0 0 1,6,3,14
0,26,14 4 4 4,4,1 4,4:0:3;4:2:1,0 0 0 0 4,-4,2,14
0,26,14 4 4 1 1 1 1,7,1 4,1:0:4;4:0:2;4:2:1,0 4 0 0 3,1,2,14
0,26,14 4 1 1 1 1 1 1 1 1,10,1 4,1:0:8;4:0:1;4:2:1,0 8 0 0 2,6,2,14
0,26,14 1 1 1 1 1 1 1 1 1 1 1 1,13,1 4,1:0:12;4:2:1,0 12 0 0 1,11,2,14
0,26,11 11 4,3,1 4,1:2:2;4:0:1,0 2 0 0 1,1,4,11
0,26,11 11 1 1 1 1,6,1 4,1:0:4;1:2:2,0 6 0 0 0,6,4,11
0,26,11 9 6,3,1 4,1:1:1;1:2:1;4:1:1,0 2 0 0 1,1,4,11
0,26,11 9 4 1 1,5,1 4,1:0:2;1:2:1;4:0:1;4:1:1,0 3 0 0 2,1,3,11
0,26,11 9 1 1 1 1 1 1,8,1 4,1:0:6;1:2:1;4:1:1,0 7 0 0 1,6,3,11
0,26,11 6 6 1 1 1,6,1 4,1:0:3;1:1:2;1:2:1,0 6 0 0 0,6,4,11
0,26,11 6 4 4 1,5,1 4,1:0:1;1:1:1;1:2:1;4:0:2,0 3 0 0 2,1,3,11
0,26,11 6 4 1 1 1 1 1,8,1 4,1:0:5;1:1:1;1:2:1;4:0:1,0 7 0 0 1,6,3,11
0,26,11 6 1 1 1 1 1 1 1 1 1,11,1 4,1:0:9;1:1:1;1:2:1,0 11 0 0 0,11,3,11
0,26,11 4 4 4 1 1 1,7,1 4,1:0:3;1:2:1;4:0:3,0 4 0 0 3,1,2,11
0,26,11 4 4 1 1 1 1 1 1 1,10,1 4,1:0:7;1:2:1;4:0:2,0 8 0 0 2,6,2,11
0,26,11 4 1 1 1 1 1 1 1 1 1 1 1,13,1 4,1:0:11;1:2:1;4:0:1,0 12 0 0 1,11,2,11
0,26,11 1 1 1 1 1 1 1 1 1 1 1 1 1 1 1,16,1 4,1:0:15;1:2:1,0 16 0 0 0,16,2,11
0,26,9 9 6 1 1,5,1 4,1:0:2;1:1:1;4:1:2,0 3 0 0 2,1,3,9
0,26,9 9 4 4,4,1 4,4:0:2;4:1:2,0 0 0 0 4,-4,2,9
0,26,9 9 4 1 1 1 1,7,1 4,1:0:4;4:0:1;4:1:2,0 4 0 0 3,1,2,9
0,26,9 9 1 1 1 1 1 1 1 1,10,1 4,1:0:8;4:1:2,0 8 0 0 2,6,2,9
0,26,9 6 6 4 1,5,1 4,1:0:1;1:1:2;4:0:1;4:1:1,0 3 0 0 2,1,3,9
0,26,9 6 6 1 1 1 1 1,8,1 4,1:0:5;1:1:2;4:1:1,0 7 0 0 1,6,3,9
0,26,9 6 4 4 1 1 1,7,1 4,1:0:3;1:1:1;4:0:2;4:1:1,0 4 0 0 3,1,2,9
0,26,9 6 4 1 1 1 1 1 1 1,10,1 4,1:0:7;1:1:1;4:0:1;4:1:1,0 8 0 0 2,6,2,9
0,26,9 6 1 1 1 1 1 1 1 1 1 1 1,13,1 4,1:0:11;1:1:1;4:1:1,0 12 0 0 1,11,2,9
0,26,9 4 4 4 4 1,6,1 4,1:0:1;4:0:4;4:1:1,0 1 0 0 5,-4,1,9
0,26,9 4 4 4 1 1 1 1 1,9,1 4,1:0:5;4:0:3;4:1:1,0 5 0 0 4,1,1,9
0,26,9 4 4 1 1 1 1 1 1 1 1 1,12,1 4,1:0:9;4:0:2;4:1:1,0 9 0 0 3,6,1,9
0,26,9 4 1 1 1 1 1 1 1 1 1 1 1 1 1,15,1 4,1:0:13;4:0:1;4:1:1,0 13 0 0 2,11,1,9
0,26,9 1 1 1 1 1 1 1 1 1 1 1 1 1 1 1 1 1,18,1 4,1:0:17;4:1:1,0 17 0 0 1,16,1,9
0,26,6 6 6 6 1 1,6,1 4,1:0:2;1:1:4,0 6 0 0 0,6,4,6
0,26,6 6 6 4 4,5,1 4,1:1:3;4:0:2,0 3 0 0 2,1,3,6
0,26,6 6 6 4 1 1 1 1,8,1 4,1:0:4;1:1:3;4:0:1,0 7 0 0 1,6,3,6
0,26,6 6 6 1 1 1 1 1 1 1 1,11,1 4,1:0:8;1:1:3,0 11 0 0 0,11,3,6
0,26,6 6 4 4 4 1 1,7,1 4,1:0:2;1:1:2;4:0:3,0 4 0 0 3,1,2,6
0,26,6 6 4 4 1 1 1 1 1 1,10,1 4,1:0:6;1:1:2;4:0:2,0 8 0 0 2,6,2,6
0,26,6 6 4 1 1 1 1 1 1 1 1 1 1,13,1 4,1:0:10;1:1:2;4:0:1,0 12 0 0 1,11,2,6
0,26,6 6 1 1 1 1 1 1 1 1 1 1 1 1 1 1,16,1 4,1:0:14;1:1:2,0 16 0 0 0,16,2,6
0,26,6 4 4 4 4 4,6,1 4,1:1:1;4:0:5,0 1 0 0 5,-4,1,6
0,26,6 4 4 4 4 1 1 1 1,9,1 4,1:0:4;1:1:1;4:0:4,0 5 0 0 4,1,1,6
0,26,6 4 4 4 1 1 1 1 1 1 1 1,12,1 4,1:0:8;1:1:1;4:0:3,0 9 0 0 3,6,1,6
0,26,6 4 4 1 1 1 1 1 1 1 1 1 1 1 1,15,1 4,1:0:12;1:1:1;4:0:2,0 13 0 0 2,11,1,6
0,26,6 4 1 1 1 1 1 1 1 1 1 1 1 1 1 1 1 1,18,1 4,1:0:16;1:1:1;4:0:1,0 17 0 0 1,16,1,6
0,26,6 1 1 1 1 1 1 1 1 1 1 1 1 1 1 1 1 1 1 1 1,21,1 4,1:0:20;1:1:1,0 21 0 0 0,21,1,6
0,26,4 4 4 4 4 4 1 1,8,1 4,1:0:2;4:0:6,0 2 0 0 6,-4,0,4
0,26,4 4 4 4 4 1 1 1 1 1 1,11,1 4,1:0:6;4:0:5,0 6 0 0 5,1,0,4
0,26,4 4 4 4 1 1 1 1 1 1 1 1 1 1,14,1 4,1:0:10;4:0:4,0 10 0 0 4,6,0,4
0,26,4 4 4 1 1 1 1 1 1 1 1 1 1 1 1 1 1,17,1 4,1:0:14;4:0:3,0 14 0 0 3,11,0,4
0,26,4 4 1 1 1 1 1 1 1 1 1 1 1 1 1 1 1 1 1 1,20,1 4,1:0:18;4:0:2,0 18 0 0 2,16,0,4
0,26,4 1 1 1 1 1 1 1 1 1 1 1 1 1 1 1 1 1 1 1 1 1 1,23,1 4,1:0:22;4:0:1,0 22 0 0 1,21,0,4
0,26,1 1 1 1 1 1 1 1 1 1 1 1 1 1 1 1 1 1 1 1 1 1 1 1 1 1,26,1 4,1:0:26,0 26 0 0 0,26,0,1
0,27,26 1,2,1 4,1:0:1;1:5:1,0 2 0 0 0,2,5,26
0,27,24 1 1 1,4,1 4,1:0:3;4:4:1,0 3 0 0 1,2,4,24
0,27,21 6,2,1 4,1:1:1;1:4:1,0 2 0 0 0,2,5,21
0,27,21 4 1 1,4,1 4,1:0:2;1:4:1;4:0:1,0 3 0 0 1,2,4,21
0,27,21 1 1 1 1 1 1,7,1 4,1:0:6;1:4:1,0 7 0 0 0,7,4,21
0,27,19 6 1 1,4,1 4,1:0:2;1:1:1;4:3:1,0 3 0 0 1,2,4,19
0,27,19 4 4,3,1 4,4:0:2;4:3:1,0 0 0 0 3,-3,3,19
0,27,19 4 1 1 1 1,6,1 4,1:0:4;4:0:1;4:3:1,0 4 0 0 2,2,3,19
0,27,19 1 1 1 1 1 1 1 1,9,1 4,1:0:8;4:3:1,0 8 0 0 1,7,3,19
0,27,16 11,2,1 4,1:2:1;1:3:1,0 2 0 0 0,2,5,16
0,27,16 9 1 1,4,1 4,1:0:2;1:3:1;4:1:1,0 3 0 0 1,2,4,16
0,27,16 6 4 1,4,1 4,1:0:1;1:1:1;1:3:1;4:0:1,0 3 0 0 1,2,4,16
0,27,16 6 1 1 1 1 1,7,1 4,1:0:5;1:1:1;1:3:1,0 7 0 0 0,7,4,16
0,27,16 4 4 1 1 1,6,1 4,1:0:3;1:3:1;4:0:2,0 4 0 0 2,2,3,16
0,27,16 4 1 1 1 1 1 1 1,9,1 4,1:0:7;1:3:1;4:0:1,0 8 0 0 1,7,3,16
0,27,16 1 1 1 1 1 1 1 1 1 1 1,12,1 4,1:0:11;1:3:1,0 12 0 0 0,12,3,16
0,27,14 11 1 1,4,1 4,1:0:2;1:2:1;4:2:1,0 3 0 0 1,2,4,14
0,27,14 9 4,3,1 4,4:0:1;4:1:1;4:2:1,0 0 0 0 3,-3,3,14
0,27,14 9 1 1 1 1,6,1 4,1:0:4;4:1:1;4:2:1,0 4 0 0 2,2,3,14
0,27,14 6 6 1,4,1 4,1:0:1;1:1:2;4:2:1,0 3 0 0 1,2,4,14
0,27,14 6 4 1 1 1,6,1 4,1:0:3;1:1:1;4:0:1;4:2:1,0 4 0 0 2,2,3,14
0,27,14 6 1 1 1 1 1 1 1,9,1 4,1:0:7;1:1:1;4:2:1,0 8 0 0 1,7,3,14
0,27,14 4 4 4 1,5,1 4,1:0:1;4:0:3;4:2:1,0 1 0 0 4,-3,2,14
0,27,14 4 4 1 1 1 1 1,8,1 4,1:0:5;4:0:2;4:2:1,0 5 0 0 3,2,2,14
0,27,14 4 1 1 1 1 1 1 1 1 1,11,1 4,1:0:9;4:0:1;4:2:1,0 9 0 0 2,7,2,14
0,27,14 1 1 1 1 1 1 1 1 1 1 1 1 1,14,1 4,1:0:13;4:2:1,0 13 0 0 1,12,2,14
0,27,11 11 4 1,4,1 4,1:0:1;1:2:2;4:0:1,0 3 0 0 1,2,4,11
0,27,11 11 1 1 1 1 1,7,1 4,1:0:5;1:2:2,0 7 0 0 0,7,4,11
0,27,11 9 6 1,4,1 4,1:0:1;1:1:1;1:2:1;4:1:1,0 3 0 0 1,2,4,11
0,27,11 9 4 1 1 1,6,1 4,1:0:3;1:2:1;4:0:1;4:1:1,0 4 0 0 2,2,3,11
0,27,11 9 1 1 1 1 1 1 1,9,1 4,1:0:7;1:2:1;4:1:1,0 8 0 0 1,7,3,11
0,27,11 6 6 4,4,1 4,1:1:2;1:2:1;4:0:1,0 3 0 0 1,2,4,11
0,27,11 6 6 1 1 1 1,7,1 4,1:0:4;1:1:2;1:2:1,0 7 0 0 0,7,4,11
0,27,11 6 4 4 1 1,6,1 4,1:0:2;1:1:1;1:2:1;4:0:2,0 4 0 0 2,2,3,11
0,27,11 6 4 1 1 1 1 1 1,9,1 4,1:0:6;1:1:1;1:2:1;4:0:1,0 8 0 0 1,7,3,11
0,27,11 6 1 1 1 1 1 1 1 1 1 1,12,1 4,1:0:10;1:1:1;1:2:1,0 12 0 0 0,12,3,11
0,27,11 4 4 4 4,5,1 4,1:2:1;4:0:4,0 1 0 0 4,-3,2,11
0,27,11 4 4 4 1 1 1 1,8,1 4,1:0:4;1:2:1;4:0:3,0 5 0 0 3,2,2,11
0,27,11 4 4 1 1 1 1 1 1 1 1,11,1 4,1:0:8;1:2:1;4:0:2,0 9 0 0 2,7,2,11
0,27,11 4 1 1 1 1 1 1 1 1 1 1 1 1,14,1 4,1:0:12;1:2:1;4:0:1,0 13 0 0 1,12,2,11
0,27,11 1 1 1 1 1 1 1 1 1 1 1 1 1 1 1 1,17,1 4,1:0:16;1:2:1,0 17 0 0 0,17,2,11
0,27,9 9 9,3,1 4,4:1:3,0 0 0 0 3,-3,3,9
0,27,9 9 6 1 1 1,6,1 4,1:0:3;1:1:1;4:1:2,0 4 0 0 2,2,3,9
0,27,9 9 4 4 1,5,1 4,1:0:1;4:0:2;4:1:2,0 1 0 0 4,-3,2,9
0,27,9 9 4 1 1 1 1 1,8,1 4,1:0:5;4:0:1;4:1:2,0 5 0 0 3,2,2,9
0,27,9 9 1 1 1 1 1 1 1 1 1,11,1 4,1:0:9;4:1:2,0 9 0 0 2,7,2,9
0,27,9 6 6 6,4,1 4,1:1:3;4:1:1,0 3 0 0 1,2,4,9
0,27,9 6 6 4 1 1,6,1 4,1:0:2;1:1:2;4:0:1;4:1:1,0 4 0 0 2,2,3,9
0,27,9 6 6 1 1 1 1 1 1,9,1 4,1:0:6;1:1:2;4:1:1,0 8 0 0 1,7,3,9
0,27,9 6 4 4 4,5,1 4,1:1:1;4:0:3;4:1:1,0 1 0 0 4,-3,2,9
0,27,9 6 4 4 1 1 1 1,8,1 4,1:0:4;1:1:1;4:0:2;4:1:1,0 5 0 0 3,2,2,9
0,27,9 6 4 1 1 1 1 1 1 1 1,11,1 4,1:0:8;1:1:1;4:0:1;4:1:1,0 9 0 0 2,7,2,9
0,27,9 6 1 1 1 1 1 1 1 1 1 1 1 1,14,1 4,1:0:12;1:1:1;4:1:1,0 13 0 0 1,12,2,9
0,27,9 4 4 4 4 1 1,7,1 4,1:0:2;4:0:4;4:1:1,0 2 0 0 5,-3,1,9
0,27,9 4 4 4 1 1 1 1 1 1,10,1 4,1:0:6;4:0:3;4:1:1,0 6 0 0 4,2,1,9
0,27,9 4 4 1 1 1 1 1 1 1 1 1 1,13,1 4,1:0:10;4:0:2;4:1:1,0 10 0 0 3,7,1,9
0,27,9 4 1 1 1 1 1 1 1 1 1 1 1 1 1 1,16,1 4,1:0:14;4:0:1;4:1:1,0 14 0 0 2,12,1,9
0,27,9 1 1 1 1 1 1 1 1 1 1 1 1 1 1 1 1 1 1,19,1 4,1:0:18;4:1:1,0 18 0 0 1,17,1,9
0,27,6 6 6 6 1 1 1,7,1 4,1:0:3;1:1:4,0 7 0 0 0,7,4,6
0,27,6 6 6 4 4 1,6,1 4,1:0:1;1:1:3;4:0:2,0 4 0 0 2,2,3,6
0,27,6 6 6 4 1 1 1 1 1,9,1 4,1:0:5;1:1:3;4:0:1,0 8 0 0 1,7,3,6
0,27,6 6 6 1 1 1 1 1 1 1 1 1,12,1 4,1:0:9;1:1:3,0 12 0 0 0,12,3,6
0,27,6 6 4 4 4 1 1 1,8,1 4,1:0:3;1:1:2;4:0:3,0 5 0 0 3,2,2,6
0,27,6 6 4 4 1 1 1 1 1 1 1,11,1 4,1:0:7;1:1:2;4:0:2,0 9 0 0 2,7,2,6
0,27,6 6 4 1 1 1 1 1 1 1 1 1 1 1,14,1 4,1:0:11;1:1:2;4:0:1,0 13 0 0 1,12,2,6
0,27,6 6 1 1 1 1 1 1 1 1 1 1 1 1 1 1 1,17,1 4,1:0:15;1:1:2,0 17 0 0 0,17,2,6
0,27,6 4 4 4 4 4 1,7,1 4,1:0:1;1:1:1;4:0:5,0 2 0 0 5,-3,1,6
0,27,6 4 4 4 4 1 1 1 1 1,10,1 4,1:0:5;1:1:1;4:0:4,0 6 0 0 4,2,1,6
0,27,6 4 4 4 1 1 1 1 1 1 1 1 1,13,1 4,1:0:9;1:1:1;4:0:3,0 10 0 0 3,7,1,6
0,27,6 4 4 1 1 1 1 1 1 1 1 1 1 1 1 1,16,1 4,1:0:13;1:1:1;4:0:2,0 14 0 0 2,12,1,6
0,27,6 4 1 1 1 1 1 1 1 1 1 1 1 1 1 1 1 1 1,19,1 4,1:0:17;1:1:1;4:0:1,0 18 0 0 1,17,1,6
0,27,6 1 1 1 1 1 1 1 1 1 1 1 1 1 1 1 1 1 1 1 1 1,22,1 4,1:0:21;1:1:1,0 22 0 0 0,22,1,6
0,27,4 4 4 4 4 4 1 1 1,9,1 4,1:0:3;4:0:6,0 3 0 0 6,-3,0,4
0,27,4 4 4 4 4 1 1 1 1 1 1 1,12,1 4,1:0:7;4:0:5,0 7 0 0 5,2,0,4
0,27,4 4 4 4 1 1 1 1 1 1 1 1 1 1 1,15,1 4,1:0:11;4:0:4,0 11 0 0 4,7,0,4
0,27,4 4 4 1 1 1 1 1 1 1 1 1 1 1 1 1 1 1,18,1 4,1:0:15;4:0:3,0 15 0 0 3,12,0,4
0,27,4 4 1 1 1 1 1 1 1 1 1 1 1 1 1 1 1 1 1 1 1,21,1 4,1:0:19;4:0:2,0 19 0 0 2,17,0,4
0,27,4 1 1 1 1 1 1 1 1 1 1 1 1 1 1 1 1 1 1 1 1 1 1 1,24,1 4,1:0:23;4:0:1,0 23 0 0 1,22,0,4
0,27,1 1 1 1 1 1 1 1 1 1 1 1 1 1 1 1 1 1 1 1 1 1 1 1 1 1 1,27,1 4,1:0:27,0 27 0 0 0,27,0,1
0,28,26 1 1,3,1 4,1:0:2;1:5:1,0 3 0 0 0,3,5,26
0,28,24 4,2,1 4,4:0:1;4:4:1,0 0 0 0 2,-2,4,24
0,28,24 1 1 1 1,5,1 4,1:0:4;4:4:1,0 4 0 0 1,3,4,24
0,28,21 6 1,3,1 4,1:0:1;1:1:1;1:4:1,0 3 0 0 0,3,5,21
0,28,21 4 1 1 1,5,1 4,1:0:3;1:4:1;4:0:1,0 4 0 0 1,3,4,21
0,28,21 1 1 1 1 1 1 1,8,1 4,1:0:7;1:4:1,0 8 0 0 0,8,4,21
0,28,19 9,2,1 4,4:1:1;4:3:1,0 0 0 0 2,-2,4,19
0,28,19 6 1 1 1,5,1 4,1:0:3;1:1:1;4:3:1,0 4 0 0 1,3,4,19
0,28,19 4 4 1,4,1 4,1:0:1;4:0:2;4:3:1,0 1 0 0 3,-2,3,19
0,28,19 4 1 1 1 1 1,7,1 4,1:0:5;4:0:1;4:3:1,0 5 0 0 2,3,3,19
0,28,19 1 1 1 1 1 1 1 1 1,10,1 4,1:0:9;4:3:1,0 9 0 0 1,8,3,19
0,28,16 11 1,3,1 4,1:0:1;1:2:1;1:3:1,0 3 0 0 0,3,5,16
0,28,16 9 1 1 1,5,1 4,1:0:3;1:3:1;4:1:1,0 4 0 0 1,3,4,16
0,28,16 6 6,3,1 4,1:1:2;1:3:1,0 3 0 0 0,3,5,16
0,28,16 6 4 1 1,5,1 4,1:0:2;1:1:1;1:3:1;4:0:1,0 4 0 0 1,3,4,16
0,28,16 6 1 1 1 1 1 1,8,1 4,1:0:6;1:1:1;1:3:1,0 8 0 0 0,8,4,16
0,28,16 4 4 4,4,1 4,1:3:1;4:0:3,0 1 0 0 3,-2,3,16
0,28,16 4 4 1 1 1 1,7,1 4,1:0:4;1:3:1;4:0:2,0 5 0 0 2,3,3,16
0,28,16 4 1 1 1 1 1 1 1 1,10,1 4,1:0:8;1:3:1;4:0:1,0 9 0 0 1,8,3,16
0,28,16 1 1 1 1 1 1 1 1 1 1 1 1,13,1 4,1:0:12;1:3:1,0 13 0 0 0,13,3,16
0,28,14 14,2,1 4,4:2:2,0 0 0 0 2,-2,4,14
0,28,14 11 1 1 1,5,1 4,1:0:3;1:2:1;4:2:1,0 4 0 0 1,3,4,14
0,28,14 9 4 1,4,1 4,1:0:1;4:0:1;4:1:1;4:2:1,0 1 0 0 3,-2,3,14
0,28,14 9 1 1 1 1 1,7,1 4,1:0:5;4:1:1;4:2:1,0 5 0 0 2,3,3,14
0,28,14 6 6 1 1,5,1 4,1:0:2;1:1:2;4:2:1,0 4 0 0 1,3,4,14
0,28,14 6 4 4,4,1 4,1:1:1;4:0:2;4:2:1,0 1 0 0 3,-2,3,14
0,28,14 6 4 1 1 1 1,7,1 4,1:0:4;1:1:1;4:0:1;4:2:1,0 5 0 0 2,3,3,14
0,28,14 6 1 1 1 1 1 1 1 1,10,1 4,1:0:8;1:1:1;4:2:1,0 9 0 0 1,8,3,14
0,28,14 4 4 4 1 1,6,1 4,1:0:2;4:0:3;4:2:1,0 2 0 0 4,-2,2,14
0,28,14 4 4 1 1 1 1 1 1,9,1 4,1:0:6;4:0:2;4:2:1,0 6 0 0 3,3,2,14
0,28,14 4 1 1 1 1 1 1 1 1 1 1,12,1 4,1:0:10;4:0:1;4:2:1,0 10 0 0 2,8,2,14
0,28,14 1 1 1 1 1 1 1 1 1 1 1 1 1 1,15,1 4,1:0:14;4:2:1,0 14 0 0 1,13,2,14
0,28,11 11 6,3,1 4,1:1:1;1:2:2,0 3 0 0 0,3,5,11
0,28,11 11 4 1 1,5,1 4,1:0:2;1:2:2;4:0:1,0 4 0 0 1,3,4,11
0,28,11 11 1 1 1 1 1 1,8,1 4,1:0:6;1:2:2,0 8 0 0 0,8,4,11
0,28,11 9 6 1 1,5,1 4,1:0:2;1:1:1;1:2:1;4:1:1,0 4 0 0 1,3,4,11
0,28,11 9 4 4,4,1 4,1:2:1;4:0:2;4:1:1,0 1 0 0 3,-2,3,11
0,28,11 9 4 1 1 1 1,7,1 4,1:0:4;1:2:1;4:0:1;4:1:1,0 5 0 0 2,3,3,11
0,28,11 9 1 1 1 1 1 1 1 1,10,1 4,1:0:8;1:2:1;4:1:1,0 9 0 0 1,8,3,11
0,28,11 6 6 4 1,5,1 4,1:0:1;1:1:2;1:2:1;4:0:1,0 4 0 0 1,3,4,11
0,28,11 6 6 1 1 1 1 1,8,1 4,1:0:5;1:1:2;1:2:1,0 8 0 0 0,8,4,11
0,28,11 6 4 4 1 1 1,7,1 4,1:0:3;1:1:1;1:2:1;4:0:2,0 5 0 0 2,3,3,11
0,28,11 6 4 1 1 1 1 1 1 1,10,1 4,1:0:7;1:1:1;1:2:1;4:0:1,0 9 0 0 1,8,3,11
0,28,11 6 1 1 1 1 1 1 1 1 1 1 1,13,1 4,1:0:11;1:1:1;1:2:1,0 13 0 0 0,13,3,11
0,28,11 4 4 4 4 1,6,1 4,1:0:1;1:2:1;4:0:4,0 2 0 0 4,-2,2,11
0,28,11 4 4 4 1 1 1 1 1,9,1 4,1:0:5;1:2:1;4:0:3,0 6 0 0 3,3,2,11
0,28,11 4 4 1 1 1 1 1 1 1 1 1,12,1 4,1:0:9;1:2:1;4:0:2,0 10 0 0 2,8,2,11
0,28,11 4 1 1 1 1 1 1 1 1 1 1 1 1 1,15,1 4,1:0:13;1:2:1;4:0:1,0 14 0 0 1,13,2,11
0,28,11 1 1 1 1 1 1 1 1 1 1 1 1 1 1 1 1 1,18,1 4,1:0:17;1:2:1,0 18 0 0 0,18,2,11
0,28,9 9 9 1,4,1 4,1:0:1;4:1:3,0 1 0 0 3,-2,3,9
0,28,9 9 6 4,4,1 4,1:1:1;4:0:1;4:1:2,0 1 0 0 3,-2,3,9
0,28,9 9 6 1 1 1 1,7,1 4,1:0:4;1:1:1;4:1:2,0 5 0 0 2,3,3,9
0,28,9 9 4 4 1 1,6,1 4,1:0:2;4:0:2;4:1:2,0 2 0 0 4,-2,2,9
0,28,9 9 4 1 1 1 1 1 1,9,1 4,1:0:6;4:0:1;4:1:2,0 6 0 0 3,3,2,9
0,28,9 9 1 1 1 1 1 1 1 1 1 1,12,1 4,1:0:10;4:1:2,0 10 0 0 2,8,2,9
0,28,9 6 6 6 1,5,1 4,1:0:1;1:1:3;4:1:1,0 4 0 0 1,3,4,9
0,28,9 6 6 4 1 1 1,7,1 4,1:0:3;1:1:2;4:0:1;4:1:1,0 5 0 0 2,3,3,9
0,28,9 6 6 1 1 1 1 1 1 1,10,1 4,1:0:7;1:1:2;4:1:1,0 9 0 0 1,8,3,9
0,28,9 6 4 4 4 1,6,1 4,1:0:1;1:1:1;4:0:3;4:1:1,0 2 0 0 4,-2,2,9
0,28,9 6 4 4 1 1 1 1 1,9,1 4,1:0:5;1:1:1;4:0:2;4:1:1,0 6 0 0 3,3,2,9
0,28,9 6 4 1 1 1 1 1 1 1 1 1,12,1 4,1:0:9;1:1:1;4:0:1;4:1:1,0 10 0 0 2,8,2,9
0,28,9 6 1 1 1 1 1 1 1 1 1 1 1 1 1,15,1 4,1:0:13;1:1:1;4:1:1,0 14 0 0 1,13,2,9
0,28,9 4 4 4 4 1 1 1,8,1 4,1:0:3;4:0:4;4:1:1,0 3 0 0 5,-2,1,9
0,28,9 4 4 4 1 1 1 1 1 1 1,11,1 4,1:0:7;4:0:3;4:1:1,0 7 0 0 4,3,1,9
0,28,9 4 4 1 1 1 1 1 1 1 1 1 1 1,14,1 4,1:0:11;4:0:2;4:1:1,0 11 0 0 3,8,1,9
0,28,9 4 1 1 1 1 1 1 1 1 1 1 1 1 1 1 1,17,1 4,1:0:15;4:0:1;4:1:1,0 15 0 0 2,13,1,9
0,28,9 1 1 1 1 1 1 1 1 1 1 1 1 1 1 1 1 1 1 1,20,1 4,1:0:19;4:1:1,0 19 0 0 1,18,1,9
0,28,6 6 6 6 4,5,1 4,1:1:4;4:0:1,0 4 0 0 1,3,4,6
0,28,6 6 6 6 1 1 1 1,8,1 4,1:0:4;1:1:4,0 8 0 0 0,8,4,6
0,28,6 6 6 4 4 1 1,7,1 4,1:0:2;1:1:3;4:0:2,0 5 0 0 2,3,3,6
0,28,6 6 6 4 1 1 1 1 1 1,10,1 4,1:0:6;1:1:3;4:0:1,0 9 0 0 1,8,3,6
0,28,6 6 6 1 1 1 1 1 1 1 1 1 1,13,1 4,1:0:10;1:1:3,0 13 0 0 0,13,3,6
0,28,6 6 4 4 4 4,6,1 4,1:1:2;4:0:4,0 2 0 0 4,-2,2,6
0,28,6 6 4 4 4 1 1 1 1,9,1 4,1:0:4;1:1:2;4:0:3,0 6 0 0 3,3,2,6
0,28,6 6 4 4 1 1 1 1 1 1 1 1,12,1 4,1:0:8;1:1:2;4:0:2,0 10 0 0 2,8,2,6
0,28,6 6 4 1 1 1 1 1 1 1 1 1 1 1 1,15,1 4,1:0:12;1:1:2;4:0:1,0 14 0 0 1,13,2,6
0,28,6 6 1 1 1 1 1 1 1 1 1 1 1 1 1 1 1 1,18,1 4,1:0:16;1:1:2,0 18 0 0 0,18,2,6
0,28,6 4 4 4 4 4 1 1,8,1 4,1:0:2;1:1:1;4:0:5,0 3 0 0 5,-2,1,6
0,28,6 4 4 4 4 1 1 1 1 1 1,11,1 4,1:0:6;1:1:1;4:0:4,0 7 0 0 4,3,1,6
0,28,6 4 4 4 1 1 1 1 1 1 1 1 1 1,14,1 4,1:0:10;1:1:1;4:0:3,0 11 0 0 3,8,1,6
0,28,6 4 4 1 1 1 1 1 1 1 1 1 1 1 1 1 1,17,1 4,1:0:14;1:1:1;4:0:2,0 15 0 0 2,13,1,6
0,28,6 4 1 1 1 1 1 1 1 1 1 1 1 1 1 1 1 1 1 1,20,1 4,1:0:18;1:1:1;4:0:1,0 19 0 0 1,18,1,6
0,28,6 1 1 1 1 1 1 1 1 1 1 1 1 1 1 1 1 1 1 1 1 1 1,23,1 4,1:0:22;1:1:1,0 23 0 0 0,23,1,6
0,28,4 4 4 4 4 4 4,7,1 4,4:0:7,0 0 0 0 7,-7,0,4
0,28,4 4 4 4 4 4 1 1 1 1,10,1 4,1:0:4;4:0:6,0 4 0 0 6,-2,0,4
0,28,4 4 4 4 4 1 1 1 1 1 1 1 1,13,1 4,1:0:8;4:0:5,0 8 0 0 5,3,0,4
0,28,4 4 4 4 1 1 1 1 1 1 1 1 1 1 1 1,16,1 4,1:0:12;4:0:4,0 12 0 0 4,8,0,4
0,28,4 4 4 1 1 1 1 1 1 1 1 1 1 1 1 1 1 1 1,19,1 4,1:0:16;4:0:3,0 16 0 0 3,13,0,4
0,28,4 4 1 1 1 1 1 1 1 1 1 1 1 1 1 1 1 1 1 1 1 1,22,1 4,1:0:20;4:0:2,0 20 0 0 2,18,0,4
0,28,4 1 1 1 1 1 1 1 1 1 1 1 1 1 1 1 1 1 1 1 1 1 1 1 1,25,1 4,1:0:24;4:0:1,0 24 0 0 1,23,0,4
0,28,1 1 1 1 1 1 1 1 1 1 1 1 1 1 1 1 1 1 1 1 1 1 1 1 1 1 1 1,28,1 4,1:0:28,0 28 0 0 0,28,0,1
1,0,,0,2 3,,0 0 0 0 0,0,0,0
1,2,2,1,2 3,2:0:1,0 0 1 0 0,1,0,2
1,3,3,1,2 3,3:0:1,0 0 0 1 0,-1,0,3
1,4,2 2,2,2 3,2:0:2,0 0 2 0 0,2,0,2
1,5,3 2,2,2 3,2:0:1;3:0:1,0 0 1 1 0,0,0,3
1,6,3 3,2,2 3,3:0:2,0 0 0 2 0,-2,0,3
1,6,2 2 2,3,2 3,2:0:3,0 0 3 0 0,3,0,2
1,7,7,1,2 3,2:1:1,0 0 1 0 0,1,1,7
1,7,3 2 2,3,2 3,2:0:2;3:0:1,0 0 2 1 0,1,0,3
1,8,8,1,2 3,3:1:1,0 0 0 1 0,-1,1,8
1,8,3 3 2,3,2 3,2:0:1;3:0:2,0 0 1 2 0,-1,0,3
1,8,2 2 2 2,4,2 3,2:0:4,0 0 4 0 0,4,0,2
1,9,7 2,2,2 3,2:0:1;2:1:1,0 0 2 0 0,2,1,7
1,9,3 3 3,3,2 3,3:0:3,0 0 0 3 0,-3,0,3
1,9,3 2 2 2,4,2 3,2:0:3;3:0:1,0 0 3 1 0,2,0,3
1,10,8 2,2,2 3,2:0:1;3:1:1,0 0 1 1 0,0,1,8
1,10,7 3,2,2 3,2:1:1;3:0:1,0 0 1 1 0,0,1,7
1,10,3 3 2 2,4,2 3,2:0:2;3:0:2,0 0 2 2 0,0,0,3
1,10,2 2 2 2 2,5,2 3,2:0:5,0 0 5 0 0,5,0,2
1,11,8 3,2,2 3,3:0:1;3:1:1,0 0 0 2 0,-2,1,8
1,11,7 2 2,3,2 3,2:0:2;2:1:1,0 0 3 0 0,3,1,7
1,11,3 3 3 2,4,2 3,2:0:1;3:0:3,0 0 1 3 0,-2,0,3
1,11,3 2 2 2 2,5,2 3,2:0:4;3:0:1,0 0 4 1 0,3,0,3
1,12,12,1,2 3,2:2:1,0 0 1 0 0,1,2,12
1,12,8 2 2,3,2 3,2:0:2;3:1:1,0 0 2 1 0,1,1,8
1,12,7 3 2,3,2 3,2:0:1;2:1:1;3:0:1,0 0 2 1 0,1,1,7
1,12,3 3 3 3,4,2 3,3:0:4,0 0 0 4 0,-4,0,3
1,12,3 3 2 2 2,5,2 3,2:0:3;3:0:2,0 0 3 2 0,1,0,3
1,12,2 2 2 2 2 2,6,2 3,2:0:6,0 0 6 0 0,6,0,2
1,13,13,1,2 3,3:2:1,0 0 0 1 0,-1,2,13
1,13,8 3 2,3,2 3,2:0:1;3:0:1;3:1:1,0 0 1 2 0,-1,1,8
1,13,7 3 3,3,2 3,2:1:1;3:0:2,0 0 1 2 0,-1,1,7
1,13,7 2 2 2,4,2 3,2:0:3;2:1:1,0 0 4 0 0,4,1,7
1,13,3 3 3 2 2,5,2 3,2:0:2;3:0:3,0 0 2 3 0,-1,0,3
1,13,3 2 2 2 2 2,6,2 3,2:0:5;3:0:1,0 0 5 1 0,4,0,3
1,14,12 2,2,2 3,2:0:1;2:2:1,0 0 2 0 0,2,2,12
1,14,8 3 3,3,2 3,3:0:2;3:1:1,0 0 0 3 0,-3,1,8
1,14,8 2 2 2,4,2 3,2:0:3;3:1:1,0 0 3 1 0,2,1,8
1,14,7 7,2,2 3,2:1:2,0 0 2 0 0,2,2,7
1,14,7 3 2 2,4,2 3,2:0:2;2:1:1;3:0:1,0 0 3 1 0,2,1,7
1,14,3 3 3 3 2,5,2 3,2:0:1;3:0:4,0 0 1 4 0,-3,0,3
1,14,3 3 2 2 2 2,6,2 3,2:0:4;3:0:2,0 0 4 2 0,2,0,3
1,14,2 2 2 2 2 2 2,7,2 3,2:0:7,0 0 7 0 0,7,0,2
1,15,13 2,2,2 3,2:0:1;3:2:1,0 0 1 1 0,0,2,13
1,15,12 3,2,2 3,2:2:1;3:0:1,0 0 1 1 0,0,2,12
1,15,8 7,2,2 3,2:1:1;3:1:1,0 0 1 1 0,0,2,8
1,15,8 3 2 2,4,2 3,2:0:2;3:0:1;3:1:1,0 0 2 2 0,0,1,8
1,15,7 3 3 2,4,2 3,2:0:1;2:1:1;3:0:2,0 0 2 2 0,0,1,7
1,15,7 2 2 2 2,5,2 3,2:0:4;2:1:1,0 0 5 0 0,5,1,7
1,15,3 3 3 3 3,5,2 3,3:0:5,0 0 0 5 0,-5,0,3
1,15,3 3 3 2 2 2,6,2 3,2:0:3;3:0:3,0 0 3 3 0,0,0,3
1,15,3 2 2 2 2 2 2,7,2 3,2:0:6;3:0:1,0 0 6 1 0,5,0,3
1,16,13 3,2,2 3,3:0:1;3:2:1,0 0 0 2 0,-2,2,13
1,16,12 2 2,3,2 3,2:0:2;2:2:1,0 0 3 0 0,3,2,12
1,16,8 8,2,2 3,3:1:2,0 0 0 2 0,-2,2,8
1,16,8 3 3 2,4,2 3,2:0:1;3:0:2;3:1:1,0 0 1 3 0,-2,1,8
1,16,8 2 2 2 2,5,2 3,2:0:4;3:1:1,0 0 4 1 0,3,1,8
1,16,7 7 2,3,2 3,2:0:1;2:1:2,0 0 3 0 0,3,2,7
1,16,7 3 3 3,4,2 3,2:1:1;3:0:3,0 0 1 3 0,-2,1,7
1,16,7 3 2 2 2,5,2 3,2:0:3;2:1:1;3:0:1,0 0 4 1 0,3,1,7
1,16,3 3 3 3 2 2,6,2 3,2:0:2;3:0:4,0 0 2 4 0,-2,0,3
1,16,3 3 2 2 2 2 2,7,2 3,2:0:5;3:0:2,0 0 5 2 0,3,0,3
1,16,2 2 2 2 2 2 2 2,8,2 3,2:0:8,0 0 8 0 0,8,0,2
1,17,17,1,2 3,2:3:1,0 0 1 0 0,1,3,17
1,17,13 2 2,3,2 3,2:0:2;3:2:1,0 0 2 1 0,1,2,13
1,17,12 3 2,3,2 3,2:0:1;2:2:1;3:0:1,0 0 2 1 0,1,2,12
1,17,8 7 2,3,2 3,2:0:1;2:1:1;3:1:1,0 0 2 1 0,1,2,8
1,17,8 3 3 3,4,2 3,3:0:3;3:1:1,0 0 0 4 0,-4,1,8
1,17,8 3 2 2 2,5,2 3,2:0:3;3:0:1;3:1:1,0 0 3 2 0,1,1,8
1,17,7 7 3,3,2 3,2:1:2;3:0:1,0 0 2 1 0,1,2,7
1,17,7 3 3 2 2,5,2 3,2:0:2;2:1:1;3:0:2,0 0 3 2 0,1,1,7
1,17,7 2 2 2 2 2,6,2 3,2:0:5;2:1:1,0 0 6 0 0,6,1,7
1,17,3 3 3 3 3 2,6,2 3,2:0:1;3:0:5,0 0 1 5 0,-4,0,3
1,17,3 3 3 2 2 2 2,7,2 3,2:0:4;3:0:3,0 0 4 3 0,1,0,3
1,17,3 2 2 2 2 2 2 2,8,2 3,2:0:7;3:0:1,0 0 7 1 0,6,0,3
1,18,18,1,2 3,3:3:1,0 0 0 1 0,-1,3,18
1,18,13 3 2,3,2 3,2:0:1;3:0:1;3:2:1,0 0 1 2 0,-1,2,13
1,18,12 3 3,3,2 3,2:2:1;3:0:2,0 0 1 2 0,-1,2,12
1,18,12 2 2 2,4,2 3,2:0:3;2:2:1,0 0 4 0 0,4,2,12
1,18,8 8 2,3,2 3,2:0:1;3:1:2,0 0 1 2 0,-1,2,8
1,18,8 7 3,3,2 3,2:1:1;3:0:1;3:1:1,0 0 1 2 0,-1,2,8
1,18,8 3 3 2 2,5,2 3,2:0:2;3:0:2;3:1:1,0 0 2 3 0,-1,1,8
1,18,8 2 2 2 2 2,6,2 3,2:0:5;3:1:1,0 0 5 1 0,4,1,8
1,18,7 7 2 2,4,2 3,2:0:2;2:1:2,0 0 4 0 0,4,2,7
1,18,7 3 3 3 2,5,2 3,2:0:1;2:1:1;3:0:3,0 0 2 3 0,-1,1,7
1,18,7 3 2 2 2 2,6,2 3,2:0:4;2:1:1;3:0:1,0 0 5 1 0,4,1,7
1,18,3 3 3 3 3 3,6,2 3,3:0:6,0 0 0 6 0,-6,0,3
1,18,3 3 3 3 2 2 2,7,2 3,2:0:3;3:0:4,0 0 3 4 0,-1,0,3
1,18,3 3 2 2 2 2 2 2,8,2 3,2:0:6;3:0:2,0 0 6 2 0,4,0,3
1,18,2 2 2 2 2 2 2 2 2,9,2 3,2:0:9,0 0 9 0 0,9,0,2
1,19,17 2,2,2 3,2:0:1;2:3:1,0 0 2 0 0,2,3,17
1,19,13 3 3,3,2 3,3:0:2;3:2:1,0 0 0 3 0,-3,2,13
1,19,13 2 2 2,4,2 3,2:0:3;3:2:1,0 0 3 1 0,2,2,13
1,19,12 7,2,2 3,2:1:1;2:2:1,0 0 2 0 0,2,3,12
1,19,12 3 2 2,4,2 3,2:0:2;2:2:1;3:0:1,0 0 3 1 0,2,2,12
1,19,8 8 3,3,2 3,3:0:1;3:1:2,0 0 0 3 0,-3,2,8
1,19,8 7 2 2,4,2 3,2:0:2;2:1:1;3:1:1,0 0 3 1 0,2,2,8
1,19,8 3 3 3 2,5,2 3,2:0:1;3:0:3;3:1:1,0 0 1 4 0,-3,1,8
1,19,8 3 2 2 2 2,6,2 3,2:0:4;3:0:1;3:1:1,0 0 4 2 0,2,1,8
1,19,7 7 3 2,4,2 3,2:0:1;2:1:2;3:0:1,0 0 3 1 0,2,2,7
1,19,7 3 3 3 3,5,2 3,2:1:1;3:0:4,0 0 1 4 0,-3,1,7
1,19,7 3 3 2 2 2,6,2 3,2:0:3;2:1:1;3:0:2,0 0 4 2 0,2,1,7
1,19,7 2 2 2 2 2 2,7,2 3,2:0:6;2:1:1,0 0 7 0 0,7,1,7
1,19,3 3 3 3 3 2 2,7,2 3,2:0:2;3:0:5,0 0 2 5 0,-3,0,3
1,19,3 3 3 2 2 2 2 2,8,2 3,2:0:5;3:0:3,0 0 5 3 0,2,0,3
1,19,3 2 2 2 2 2 2 2 2,9,2 3,2:0:8;3:0:1,0 0 8 1 0,7,0,3
1,20,18 2,2,2 3,2:0:1;3:3:1,0 0 1 1 0,0,3,18
1,20,17 3,2,2 3,2:3:1;3:0:1,0 0 1 1 0,0,3,17
1,20,13 7,2,2 3,2:1:1;3:2:1,0 0 1 1 0,0,3,13
1,20,13 3 2 2,4,2 3,2:0:2;3:0:1;3:2:1,0 0 2 2 0,0,2,13
1,20,12 8,2,2 3,2:2:1;3:1:1,0 0 1 1 0,0,3,12
1,20,12 3 3 2,4,2 3,2:0:1;2:2:1;3:0:2,0 0 2 2 0,0,2,12
1,20,12 2 2 2 2,5,2 3,2:0:4;2:2:1,0 0 5 0 0,5,2,12
1,20,8 8 2 2,4,2 3,2:0:2;3:1:2,0 0 2 2 0,0,2,8
1,20,8 7 3 2,4,2 3,2:0:1;2:1:1;3:0:1;3:1:1,0 0 2 2 0,0,2,8
1,20,8 3 3 3 3,5,2 3,3:0:4;3:1:1,0 0 0 5 0,-5,1,8
1,20,8 3 3 2 2 2,6,2 3,2:0:3;3:0:2;3:1:1,0 0 3 3 0,0,1,8
1,20,8 2 2 2 2 2 2,7,2 3,2:0:6;3:1:1,0 0 6 1 0,5,1,8
1,20,7 7 3 3,4,2 3,2:1:2;3:0:2,0 0 2 2 0,0,2,7
1,20,7 7 2 2 2,5,2 3,2:0:3;2:1:2,0 0 5 0 0,5,2,7
1,20,7 3 3 3 2 2,6,2 3,2:0:2;2:1:1;3:0:3,0 0 3 3 0,0,1,7
1,20,7 3 2 2 2 2 2,7,2 3,2:0:5;2:1:1;3:0:1,0 0 6 1 0,5,1,7
1,20,3 3 3 3 3 3 2,7,2 3,2:0:1;3:0:6,0 0 1 6 0,-5,0,3
1,20,3 3 3 3 2 2 2 2,8,2 3,2:0:4;3:0:4,0 0 4 4 0,0,0,3
1,20,3 3 2 2 2 2 2 2 2,9,2 3,2:0:7;3:0:2,0 0 7 2 0,5,0,3
1,20,2 2 2 2 2 2 2 2 2 2,10,2 3,2:0:10,0 0 10 0 0,10,0,2
1,21,18 3,2,2 3,3:0:1;3:3:1,0 0 0 2 0,-2,3,18
1,21,17 2 2,3,2 3,2:0:2;2:3:1,0 0 3 0 0,3,3,17
1,21,13 8,2,2 3,3:1:1;3:2:1,0 0 0 2 0,-2,3,13
1,21,13 3 3 2,4,2 3,2:0:1;3:0:2;3:2:1,0 0 1 3 0,-2,2,13
1,21,13 2 2 2 2,5,2 3,2:0:4;3:2:1,0 0 4 1 0,3,2,13
1,21,12 7 2,3,2 3,2:0:1;2:1:1;2:2:1,0 0 3 0 0,3,3,12
1,21,12 3 3 3,4,2 3,2:2:1;3:0:3,0 0 1 3 0,-2,2,12
1,21,12 3 2 2 2,5,2 3,2:0:3;2:2:1;3:0:1,0 0 4 1 0,3,2,12
1,21,8 8 3 2,4,2 3,2:0:1;3:0:1;3:1:2,0 0 1 3 0,-2,2,8
1,21,8 7 3 3,4,2 3,2:1:1;3:0:2;3:1:1,0 0 1 3 0,-2,2,8
1,21,8 7 2 2 2,5,2 3,2:0:3;2:1:1;3:1:1,0 0 4 1 0,3,2,8
1,21,8 3 3 3 2 2,6,2 3,2:0:2;3:0:3;3:1:1,0 0 2 4 0,-2,1,8
1,21,8 3 2 2 2 2 2,7,2 3,2:0:5;3:0:1;3:1:1,0 0 5 2 0,3,1,8
1,21,7 7 7,3,2 3,2:1:3,0 0 3 0 0,3,3,7
1,21,7 7 3 2 2,5,2 3,2:0:2;2:1:2;3:0:1,0 0 4 1 0,3,2,7
1,21,7 3 3 3 3 2,6,2 3,2:0:1;2:1:1;3:0:4,0 0 2 4 0,-2,1,7
1,21,7 3 3 2 2 2 2,7,2 3,2:0:4;2:1:1;3:0:2,0 0 5 2 0,3,1,7
1,21,7 2 2 2 2 2 2 2,8,2 3,2:0:7;2:1:1,0 0 8 0 0,8,1,7
1,21,3 3 3 3 3 3 3,7,2 3,3:0:7,0 0 0 7 0,-7,0,3
1,21,3 3 3 3 3 2 2 2,8,2 3,2:0:3;3:0:5,0 0 3 5 0,-2,0,3
1,21,3 3 3 2 2 2 2 2 2,9,2 3,2:0:6;3:0:3,0 0 6 3 0,3,0,3
1,21,3 2 2 2 2 2 2 2 2 2,10,2 3,2:0:9;3:0:1,0 0 9 1 0,8,0,3
1,22,22,1,2 3,2:4:1,0 0 1 0 0,1,4,22
1,22,18 2 2,3,2 3,2:0:2;3:3:1,0 0 2 1 0,1,3,18
1,22,17 3 2,3,2 3,2:0:1;2:3:1;3:0:1,0 0 2 1 0,1,3,17
1,22,13 7 2,3,2 3,2:0:1;2:1:1;3:2:1,0 0 2 1 0,1,3,13
1,22,13 3 3 3,4,2 3,3:0:3;3:2:1,0 0 0 4 0,-4,2,13
1,22,13 3 2 2 2,5,2 3,2:0:3;3:0:1;3:2:1,0 0 3 2 0,1,2,13
1,22,12 8 2,3,2 3,2:0:1;2:2:1;3:1:1,0 0 2 1 0,1,3,12
1,22,12 7 3,3,2 3,2:1:1;2:2:1;3:0:1,0 0 2 1 0,1,3,12
1,22,12 3 3 2 2,5,2 3,2:0:2;2:2:1;3:0:2,0 0 3 2 0,1,2,12
1,22,12 2 2 2 2 2,6,2 3,2:0:5;2:2:1,0 0 6 0 0,6,2,12
1,22,8 8 3 3,4,2 3,3:0:2;3:1:2,0 0 0 4 0,-4,2,8
1,22,8 8 2 2 2,5,2 3,2:0:3;3:1:2,0 0 3 2 0,1,2,8
1,22,8 7 7,3,2 3,2:1:2;3:1:1,0 0 2 1 0,1,3,8
1,22,8 7 3 2 2,5,2 3,2:0:2;2:1:1;3:0:1;3:1:1,0 0 3 2 0,1,2,8
1,22,8 3 3 3 3 2,6,2 3,2:0:1;3:0:4;3:1:1,0 0 1 5 0,-4,1,8
1,22,8 3 3 2 2 2 2,7,2 3,2:0:4;3:0:2;3:1:1,0 0 4 3 0,1,1,8
1,22,8 2 2 2 2 2 2 2,8,2 3,2:0:7;3:1:1,0 0 7 1 0,6,1,8
1,22,7 7 3 3 2,5,2 3,2:0:1;2:1:2;3:0:2,0 0 3 2 0,1,2,7
1,22,7 7 2 2 2 2,6,2 3,2:0:4;2:1:2,0 0 6 0 0,6,2,7
1,22,7 3 3 3 3 3,6,2 3,2:1:1;3:0:5,0 0 1 5 0,-4,1,7
1,22,7 3 3 3 2 2 2,7,2 3,2:0:3;2:1:1;3:0:3,0 0 4 3 0,1,1,7
1,22,7 3 2 2 2 2 2 2,8,2 3,2:0:6;2:1:1;3:0:1,0 0 7 1 0,6,1,7
1,22,3 3 3 3 3 3 2 2,8,2 3,2:0:2;3:0:6,0 0 2 6 0,-4,0,3
1,22,3 3 3 3 2 2 2 2 2,9,2 3,2:0:5;3:0:4,0 0 5 4 0,1,0,3
1,22,3 3 2 2 2 2 2 2 2 2,10,2 3,2:0:8;3:0:2,0 0 8 2 0,6,0,3
1,22,2 2 2 2 2 2 2 2 2 2 2,11,2 3,2:0:11,0 0 11 0 0,11,0,2
1,23,23,1,2 3,3:4:1,0 0 0 1 0,-1,4,23
1,23,18 3 2,3,2 3,2:0:1;3:0:1;3:3:1,0 0 1 2 0,-1,3,18
1,23,17 3 3,3,2 3,2:3:1;3:0:2,0 0 1 2 0,-1,3,17
1,23,17 2 2 2,4,2 3,2:0:3;2:3:1,0 0 4 0 0,4,3,17
1,23,13 8 2,3,2 3,2:0:1;3:1:1;3:2:1,0 0 1 2 0,-1,3,13
1,23,13 7 3,3,2 3,2:1:1;3:0:1;3:2:1,0 0 1 2 0,-1,3,13
1,23,13 3 3 2 2,5,2 3,2:0:2;3:0:2;3:2:1,0 0 2 3 0,-1,2,13
1,23,13 2 2 2 2 2,6,2 3,2:0:5;3:2:1,0 0 5 1 0,4,2,13
1,23,12 8 3,3,2 3,2:2:1;3:0:1;3:1:1,0 0 1 2 0,-1,3,12
1,23,12 7 2 2,4,2 3,2:0:2;2:1:1;2:2:1,0 0 4 0 0,4,3,12
1,23,12 3 3 3 2,5,2 3,2:0:1;2:2:1;3:0:3,0 0 2 3 0,-1,2,12
1,23,12 3 2 2 2 2,6,2 3,2:0:4;2:2:1;3:0:1,0 0 5 1 0,4,2,12
1,23,8 8 7,3,2 3,2:1:1;3:1:2,0 0 1 2 0,-1,3,8
1,23,8 8 3 2 2,5,2 3,2:0:2;3:0:1;3:1:2,0 0 2 3 0,-1,2,8
1,23,8 7 3 3 2,5,2 3,2:0:1;2:1:1;3:0:2;3:1:1,0 0 2 3 0,-1,2,8
1,23,8 7 2 2 2 2,6,2 3,2:0:4;2:1:1;3:1:1,0 0 5 1 0,4,2,8
1,23,8 3 3 3 3 3,6,2 3,3:0:5;3:1:1,0 0 0 6 0,-6,1,8
1,23,8 3 3 3 2 2 2,7,2 3,2:0:3;3:0:3;3:1:1,0 0 3 4 0,-1,1,8
1,23,8 3 2 2 2 2 2 2,8,2 3,2:0:6;3:0:1;3:1:1,0 0 6 2 0,4,1,8
1,23,7 7 7 2,4,2 3,2:0:1;2:1:3,0 0 4 0 0,4,3,7
1,23,7 7 3 3 3,5,2 3,2:1:2;3:0:3,0 0 2 3 0,-1,2,7
1,23,7 7 3 2 2 2,6,2 3,2:0:3;2:1:2;3:0:1,0 0 5 1 0,4,2,7
1,23,7 3 3 3 3 2 2,7,2 3,2:0:2;2:1:1;3:0:4,0 0 3 4 0,-1,1,7
1,23,7 3 3 2 2 2 2 2,8,2 3,2:0:5;2:1:1;3:0:2,0 0 6 2 0,4,1,7
1,23,7 2 2 2 2 2 2 2 2,9,2 3,2:0:8;2:1:1,0 0 9 0 0,9,1,7
1,23,3 3 3 3 3 3 3 2,8,2 3,2:0:1;3:0:7,0 0 1 7 0,-6,0,3
1,23,3 3 3 3 3 2 2 2 2,9,2 3,2:0:4;3:0:5,0 0 4 5 0,-1,0,3
1,23,3 3 3 2 2 2 2 2 2 2,10,2 3,2:0:7;3:0:3,0 0 7 3 0,4,0,3
1,23,3 2 2 2 2 2 2 2 2 2 2,11,2 3,2:0:10;3:0:1,0 0 10 1 0,9,0,3
1,24,22 2,2,2 3,2:0:1;2:4:1,0 0 2 0 0,2,4,22
1,24,18 3 3,3,2 3,3:0:2;3:3:1,0 0 0 3 0,-3,3,18
1,24,18 2 2 2,4,2 3,2:0:3;3:3:1,0 0 3 1 0,2,3,18
1,24,17 7,2,2 3,2:1:1;2:3:1,0 0 2 0 0,2,4,17
1,24,17 3 2 2,4,2 3,2:0:2;2:3:1;3:0:1,0 0 3 1 0,2,3,17
1,24,13 8 3,3,2 3,3:0:1;3:1:1;3:2:1,0 0 0 3 0,-3,3,13
1,24,13 7 2 2,4,2 3,2:0:2;2:1:1;3:2:1,0 0 3 1 0,2,3,13
1,24,13 3 3 3 2,5,2 3,2:0:1;3:0:3;3:2:1,0 0 1 4 0,-3,2,13
1,24,13 3 2 2 2 2,6,2 3,2:0:4;3:0:1;3:2:1,0 0 4 2 0,2,2,13
1,24,12 12,2,2 3,2:2:2,0 0 2 0 0,2,4,12
1,24,12 8 2 2,4,2 3,2:0:2;2:2:1;3:1:1,0 0 3 1 0,2,3,12
1,24,12 7 3 2,4,2 3,2:0:1;2:1:1;2:2:1;3:0:1,0 0 3 1 0,2,3,12
1,24,12 3 3 3 3,5,2 3,2:2:1;3:0:4,0 0 1 4 0,-3,2,12
1,24,12 3 3 2 2 2,6,2 3,2:0:3;2:2:1;3:0:2,0 0 4 2 0,2,2,12
1,24,12 2 2 2 2 2 2,7,2 3,2:0:6;2:2:1,0 0 7 0 0,7,2,12
1,24,8 8 8,3,2 3,3:1:3,0 0 0 3 0,-3,3,8
1,24,8 8 3 3 2,5,2 3,2:0:1;3:0:2;3:1:2,0 0 1 4 0,-3,2,8
1,24,8 8 2 2 2 2,6,2 3,2:0:4;3:1:2,0 0 4 2 0,2,2,8
1,24,8 7 7 2,4,2 3,2:0:1;2:1:2;3:1:1,0 0 3 1 0,2,3,8
1,24,8 7 3 3 3,5,2 3,2:1:1;3:0:3;3:1:1,0 0 1 4 0,-3,2,8
1,24,8 7 3 2 2 2,6,2 3,2:0:3;2:1:1;3:0:1;3:1:1,0 0 4 2 0,2,2,8
1,24,8 3 3 3 3 2 2,7,2 3,2:0:2;3:0:4;3:1:1,0 0 2 5 0,-3,1,8
1,24,8 3 3 2 2 2 2 2,8,2 3,2:0:5;3:0:2;3:1:1,0 0 5 3 0,2,1,8
1,24,8 2 2 2 2 2 2 2 2,9,2 3,2:0:8;3:1:1,0 0 8 1 0,7,1,8
1,24,7 7 7 3,4,2 3,2:1:3;3:0:1,0 0 3 1 0,2,3,7
1,24,7 7 3 3 2 2,6,2 3,2:0:2;2:1:2;3:0:2,0 0 4 2 0,2,2,7
1,24,7 7 2 2 2 2 2,7,2 3,2:0:5;2:1:2,0 0 7 0 0,7,2,7
1,24,7 3 3 3 3 3 2,7,2 3,2:0:1;2:1:1;3:0:5,0 0 2 5 0,-3,1,7
1,24,7 3 3 3 2 2 2 2,8,2 3,2:0:4;2:1:1;3:0:3,0 0 5 3 0,2,1,7
1,24,7 3 2 2 2 2 2 2 2,9,2 3,2:0:7;2:1:1;3:0:1,0 0 8 1 0,7,1,7
1,24,3 3 3 3 3 3 3 3,8,2 3,3:0:8,0 0 0 8 0,-8,0,3
1,24,3 3 3 3 3 3 2 2 2,9,2 3,2:0:3;3:0:6,0 0 3 6 0,-3,0,3
1,24,3 3 3 3 2 2 2 2 2 2,10,2 3,2:0:6;3:0:4,0 0 6 4 0,2,0,3
1,24,3 3 2 2 2 2 2 2 2 2 2,11,2 3,2:0:9;3:0:2,0 0 9 2 0,7,0,3
1,24,2 2 2 2 2 2 2 2 2 2 2 2,12,2 3,2:0:12,0 0 12 0 0,12,0,2
1,25,23 2,2,2 3,2:0:1;3:4:1,0 0 1 1 0,0,4,23
1,25,22 3,2,2 3,2:4:1;3:0:1,0 0 1 1 0,0,4,22
1,25,18 7,2,2 3,2:1:1;3:3:1,0 0 1 1 0,0,4,18
1,25,18 3 2 2,4,2 3,2:0:2;3:0:1;3:3:1,0 0 2 2 0,0,3,18
1,25,17 8,2,2 3,2:3:1;3:1:1,0 0 1 1 0,0,4,17
1,25,17 3 3 2,4,2 3,2:0:1;2:3:1;3:0:2,0 0 2 2 0,0,3,17
1,25,17 2 2 2 2,5,2 3,2:0:4;2:3:1,0 0 5 0 0,5,3,17
1,25,13 12,2,2 3,2:2:1;3:2:1,0 0 1 1 0,0,4,13
1,25,13 8 2 2,4,2 3,2:0:2;3:1:1;3:2:1,0 0 2 2 0,0,3,13
1,25,13 7 3 2,4,2 3,2:0:1;2:1:1;3:0:1;3:2:1,0 0 2 2 0,0,3,13
1,25,13 3 3 3 3,5,2 3,3:0:4;3:2:1,0 0 0 5 0,-5,2,13
1,25,13 3 3 2 2 2,6,2 3,2:0:3;3:0:2;3:2:1,0 0 3 3 0,0,2,13
1,25,13 2 2 2 2 2 2,7,2 3,2:0:6;3:2:1,0 0 6 1 0,5,2,13
1,25,12 8 3 2,4,2 3,2:0:1;2:2:1;3:0:1;3:1:1,0 0 2 2 0,0,3,12
1,25,12 7 3 3,4,2 3,2:1:1;2:2:1;3:0:2,0 0 2 2 0,0,3,12
1,25,12 7 2 2 2,5,2 3,2:0:3;2:1:1;2:2:1,0 0 5 0 0,5,3,12
1,25,12 3 3 3 2 2,6,2 3,2:0:2;2:2:1;3:0:3,0 0 3 3 0,0,2,12
1,25,12 3 2 2 2 2 2,7,2 3,2:0:5;2:2:1;3:0:1,0 0 6 1 0,5,2,12
1,25,8 8 7 2,4,2 3,2:0:1;2:1:1;3:1:2,0 0 2 2 0,0,3,8
1,25,8 8 3 3 3,5,2 3,3:0:3;3:1:2,0 0 0 5 0,-5,2,8
1,25,8 8 3 2 2 2,6,2 3,2:0:3;3:0:1;3:1:2,0 0 3 3 0,0,2,8
1,25,8 7 7 3,4,2 3,2:1:2;3:0:1;3:1:1,0 0 2 2 0,0,3,8
1,25,8 7 3 3 2 2,6,2 3,2:0:2;2:1:1;3:0:2;3:1:1,0 0 3 3 0,0,2,8
1,25,8 7 2 2 2 2 2,7,2 3,2:0:5;2:1:1;3:1:1,0 0 6 1 0,5,2,8
1,25,8 3 3 3 3 3 2,7,2 3,2:0:1;3:0:5;3:1:1,0 0 1 6 0,-5,1,8
1,25,8 3 3 3 2 2 2 2,8,2 3,2:0:4;3:0:3;3:1:1,0 0 4 4 0,0,1,8
1,25,8 3 2 2 2 2 2 2 2,9,2 3,2:0:7;3:0:1;3:1:1,0 0 7 2 0,5,1,8
1,25,7 7 7 2 2,5,2 3,2:0:2;2:1:3,0 0 5 0 0,5,3,7
1,25,7 7 3 3 3 2,6,2 3,2:0:1;2:1:2;3:0:3,0 0 3 3 0,0,2,7
1,25,7 7 3 2 2 2 2,7,2 3,2:0:4;2:1:2;3:0:1,0 0 6 1 0,5,2,7
1,25,7 3 3 3 3 3 3,7,2 3,2:1:1;3:0:6,0 0 1 6 0,-5,1,7
1,25,7 3 3 3 3 2 2 2,8,2 3,2:0:3;2:1:1;3:0:4,0 0 4 4 0,0,1,7
1,25,7 3 3 2 2 2 2 2 2,9,2 3,2:0:6;2:1:1;3:0:2,0 0 7 2 0,5,1,7
1,25,7 2 2 2 2 2 2 2 2 2,10,2 3,2:0:9;2:1:1,0 0 10 0 0,10,1,7
1,25,3 3 3 3 3 3 3 2 2,9,2 3,2:0:2;3:0:7,0 0 2 7 0,-5,0,3
1,25,3 3 3 3 3 2 2 2 2 2,10,2 3,2:0:5;3:0:5,0 0 5 5 0,0,0,3
1,25,3 3 3 2 2 2 2 2 2 2 2,11,2 3,2:0:8;3:0:3,0 0 8 3 0,5,0,3
1,25,3 2 2 2 2 2 2 2 2 2 2 2,12,2 3,2:0:11;3:0:1,0 0 11 1 0,10,0,3
1,26,23 3,2,2 3,3:0:1;3:4:1,0 0 0 2 0,-2,4,23
1,26,22 2 2,3,2 3,2:0:2;2:4:1,0 0 3 0 0,3,4,22
1,26,18 8,2,2 3,3:1:1;3:3:1,0 0 0 2 0,-2,4,18
1,26,18 3 3 2,4,2 3,2:0:1;3:0:2;3:3:1,0 0 1 3 0,-2,3,18
1,26,18 2 2 2 2,5,2 3,2:0:4;3:3:1,0 0 4 1 0,3,3,18
1,26,17 7 2,3,2 3,2:0:1;2:1:1;2:3:1,0 0 3 0 0,3,4,17
1,26,17 3 3 3,4,2 3,2:3:1;3:0:3,0 0 1 3 0,-2,3,17
1,26,17 3 2 2 2,5,2 3,2:0:3;2:3:1;3:0:1,0 0 4 1 0,3,3,17
1,26,13 13,2,2 3,3:2:2,0 0 0 2 0,-2,4,13
1,26,13 8 3 2,4,2 3,2:0:1;3:0:1;3:1:1;3:2:1,0 0 1 3 0,-2,3,13
1,26,13 7 3 3,4,2 3,2:1:1;3:0:2;3:2:1,0 0 1 3 0,-2,3,13
1,26,13 7 2 2 2,5,2 3,2:0:3;2:1:1;3:2:1,0 0 4 1 0,3,3,13
1,26,13 3 3 3 2 2,6,2 3,2:0:2;3:0:3;3:2:1,0 0 2 4 0,-2,2,13
1,26,13 3 2 2 2 2 2,7,2 3,2:0:5;3:0:1;3:2:1,0 0 5 2 0,3,2,13
1,26,12 12 2,3,2 3,2:0:1;2:2:2,0 0 3 0 0,3,4,12
1,26,12 8 3 3,4,2 3,2:2:1;3:0:2;3:1:1,0 0 1 3 0,-2,3,12
1,26,12 8 2 2 2,5,2 3,2:0:3;2:2:1;3:1:1,0 0 4 1 0,3,3,12
1,26,12 7 7,3,2 3,2:1:2;2:2:1,0 0 3 0 0,3,4,12
1,26,12 7 3 2 2,5,2 3,2:0:2;2:1:1;2:2:1;3:0:1,0 0 4 1 0,3,3,12
1,26,12 3 3 3 3 2,6,2 3,2:0:1;2:2:1;3:0:4,0 0 2 4 0,-2,2,12
1,26,12 3 3 2 2 2 2,7,2 3,2:0:4;2:2:1;3:0:2,0 0 5 2 0,3,2,12
1,26,12 2 2 2 2 2 2 2,8,2 3,2:0:7;2:2:1,0 0 8 0 0,8,2,12
1,26,8 8 8 2,4,2 3,2:0:1;3:1:3,0 0 1 3 0,-2,3,8
1,26,8 8 7 3,4,2 3,2:1:1;3:0:1;3:1:2,0 0 1 3 0,-2,3,8
1,26,8 8 3 3 2 2,6,2 3,2:0:2;3:0:2;3:1:2,0 0 2 4 0,-2,2,8
1,26,8 8 2 2 2 2 2,7,2 3,2:0:5;3:1:2,0 0 5 2 0,3,2,8
1,26,8 7 7 2 2,5,2 3,2:0:2;2:1:2;3:1:1,0 0 4 1 0,3,3,8
1,26,8 7 3 3 3 2,6,2 3,2:0:1;2:1:1;3:0:3;3:1:1,0 0 2 4 0,-2,2,8
1,26,8 7 3 2 2 2 2,7,2 3,2:0:4;2:1:1;3:0:1;3:1:1,0 0 5 2 0,3,2,8
1,26,8 3 3 3 3 3 3,7,2 3,3:0:6;3:1:1,0 0 0 7 0,-7,1,8
1,26,8 3 3 3 3 2 2 2,8,2 3,2:0:3;3:0:4;3:1:1,0 0 3 5 0,-2,1,8
1,26,8 3 3 2 2 2 2 2 2,9,2 3,2:0:6;3:0:2;3:1:1,0 0 6 3 0,3,1,8
1,26,8 2 2 2 2 2 2 2 2 2,10,2 3,2:0:9;3:1:1,0 0 9 1 0,8,1,8
1,26,7 7 7 3 2,5,2 3,2:0:1;2:1:3;3:0:1,0 0 4 1 0,3,3,7
1,26,7 7 3 3 3 3,6,2 3,2:1:2;3:0:4,0 0 2 4 0,-2,2,7
1,26,7 7 3 3 2 2 2,7,2 3,2:0:3;2:1:2;3:0:2,0 0 5 2 0,3,2,7
1,26,7 7 2 2 2 2 2 2,8,2 3,2:0:6;2:1:2,0 0 8 0 0,8,2,7
1,26,7 3 3 3 3 3 2 2,8,2 3,2:0:2;2:1:1;3:0:5,0 0 3 5 0,-2,1,7
1,26,7 3 3 3 2 2 2 2 2,9,2 3,2:0:5;2:1:1;3:0:3,0 0 6 3 0,3,1,7
1,26,7 3 2 2 2 2 2 2 2 2,10,2 3,2:0:8;2:1:1;3:0:1,0 0 9 1 0,8,1,7
1,26,3 3 3 3 3 3 3 3 2,9,2 3,2:0:1;3:0:8,0 0 1 8 0,-7,0,3
1,26,3 3 3 3 3 3 2 2 2 2,10,2 3,2:0:4;3:0:6,0 0 4 6 0,-2,0,3
1,26,3 3 3 3 2 2 2 2 2 2 2,11,2 3,2:0:7;3:0:4,0 0 7 4 0,3,0,3
1,26,3 3 2 2 2 2 2 2 2 2 2 2,12,2 3,2:0:10;3:0:2,0 0 10 2 0,8,0,3
1,26,2 2 2 2 2 2 2 2 2 2 2 2 2,13,2 3,2:0:13,0 0 13 0 0,13,0,2
1,27,27,1,2 3,2:5:1,0 0 1 0 0,1,5,27
1,27,23 2 2,3,2 3,2:0:2;3:4:1,0 0 2 1 0,1,4,23
1,27,22 3 2,3,2 3,2:0:1;2:4:1;3:0:1,0 0 2 1 0,1,4,22
1,27,18 7 2,3,2 3,2:0:1;2:1:1;3:3:1,0 0 2 1 0,1,4,18
1,27,18 3 3 3,4,2 3,3:0:3;3:3:1,0 0 0 4 0,-4,3,18
1,27,18 3 2 2 2,5,2 3,2:0:3;3:0:1;3:3:1,0 0 3 2 0,1,3,18
1,27,17 8 2,3,2 3,2:0:1;2:3:1;3:1:1,0 0 2 1 0,1,4,17
1,27,17 7 3,3,2 3,2:1:1;2:3:1;3:0:1,0 0 2 1 0,1,4,17
1,27,17 3 3 2 2,5,2 3,2:0:2;2:3:1;3:0:2,0 0 3 2 0,1,3,17
1,27,17 2 2 2 2 2,6,2 3,2:0:5;2:3:1,0 0 6 0 0,6,3,17
1,27,13 12 2,3,2 3,2:0:1;2:2:1;3:2:1,0 0 2 1 0,1,4,13
1,27,13 8 3 3,4,2 3,3:0:2;3:1:1;3:2:1,0 0 0 4 0,-4,3,13
1,27,13 8 2 2 2,5,2 3,2:0:3;3:1:1;3:2:1,0 0 3 2 0,1,3,13
1,27,13 7 7,3,2 3,2:1:2;3:2:1,0 0 2 1 0,1,4,13
1,27,13 7 3 2 2,5,2 3,2:0:2;2:1:1;3:0:1;3:2:1,0 0 3 2 0,1,3,13
1,27,13 3 3 3 3 2,6,2 3,2:0:1;3:0:4;3:2:1,0 0 1 5 0,-4,2,13
1,27,13 3 3 2 2 2 2,7,2 3,2:0:4;3:0:2;3:2:1,0 0 4 3 0,1,2,13
1,27,13 2 2 2 2 2 2 2,8,2 3,2:0:7;3:2:1,0 0 7 1 0,6,2,13
1,27,12 12 3,3,2 3,2:2:2;3:0:1,0 0 2 1 0,1,4,12
1,27,12 8 7,3,2 3,2:1:1;2:2:1;3:1:1,0 0 2 1 0,1,4,12
1,27,12 8 3 2 2,5,2 3,2:0:2;2:2:1;3:0:1;3:1:1,0 0 3 2 0,1,3,12
1,27,12 7 3 3 2,5,2 3,2:0:1;2:1:1;2:2:1;3:0:2,0 0 3 2 0,1,3,12
1,27,12 7 2 2 2 2,6,2 3,2:0:4;2:1:1;2:2:1,0 0 6 0 0,6,3,12
1,27,12 3 3 3 3 3,6,2 3,2:2:1;3:0:5,0 0 1 5 0,-4,2,12
1,27,12 3 3 3 2 2 2,7,2 3,2:0:3;2:2:1;3:0:3,0 0 4 3 0,1,2,12
1,27,12 3 2 2 2 2 2 2,8,2 3,2:0:6;2:2:1;3:0:1,0 0 7 1 0,6,2,12
1,27,8 8 8 3,4,2 3,3:0:1;3:1:3,0 0 0 4 0,-4,3,8
1,27,8 8 7 2 2,5,2 3,2:0:2;2:1:1;3:1:2,0 0 3 2 0,1,3,8
1,27,8 8 3 3 3 2,6,2 3,2:0:1;3:0:3;3:1:2,0 0 1 5 0,-4,2,8
1,27,8 8 3 2 2 2 2,7,2 3,2:0:4;3:0:1;3:1:2,0 0 4 3 0,1,2,8
1,27,8 7 7 3 2,5,2 3,2:0:1;2:1:2;3:0:1;3:1:1,0 0 3 2 0,1,3,8
1,27,8 7 3 3 3 3,6,2 3,2:1:1;3:0:4;3:1:1,0 0 1 5 0,-4,2,8
1,27,8 7 3 3 2 2 2,7,2 3,2:0:3;2:1:1;3:0:2;3:1:1,0 0 4 3 0,1,2,8
1,27,8 7 2 2 2 2 2 2,8,2 3,2:0:6;2:1:1;3:1:1,0 0 7 1 0,6,2,8
1,27,8 3 3 3 3 3 2 2,8,2 3,2:0:2;3:0:5;3:1:1,0 0 2 6 0,-4,1,8
1,27,8 3 3 3 2 2 2 2 2,9,2 3,2:0:5;3:0:3;3:1:1,0 0 5 4 0,1,1,8
1,27,8 3 2 2 2 2 2 2 2 2,10,2 3,2:0:8;3:0:1;3:1:1,0 0 8 2 0,6,1,8
1,27,7 7 7 3 3,5,2 3,2:1:3;3:0:2,0 0 3 2 0,1,3,7
1,27,7 7 7 2 2 2,6,2 3,2:0:3;2:1:3,0 0 6 0 0,6,3,7
1,27,7 7 3 3 3 2 2,7,2 3,2:0:2;2:1:2;3:0:3,0 0 4 3 0,1,2,7
1,27,7 7 3 2 2 2 2 2,8,2 3,2:0:5;2:1:2;3:0:1,0 0 7 1 0,6,2,7
1,27,7 3 3 3 3 3 3 2,8,2 3,2:0:1;2:1:1;3:0:6,0 0 2 6 0,-4,1,7
1,27,7 3 3 3 3 2 2 2 2,9,2 3,2:0:4;2:1:1;3:0:4,0 0 5 4 0,1,1,7
1,27,7 3 3 2 2 2 2 2 2 2,10,2 3,2:0:7;2:1:1;3:0:2,0 0 8 2 0,6,1,7
1,27,7 2 2 2 2 2 2 2 2 2 2,11,2 3,2:0:10;2:1:1,0 0 11 0 0,11,1,7
1,27,3 3 3 3 3 3 3 3 3,9,2 3,3:0:9,0 0 0 9 0,-9,0,3
1,27,3 3 3 3 3 3 3 2 2 2,10,2 3,2:0:3;3:0:7,0 0 3 7 0,-4,0,3
1,27,3 3 3 3 3 2 2 2 2 2 2,11,2 3,2:0:6;3:0:5,0 0 6 5 0,1,0,3
1,27,3 3 3 2 2 2 2 2 2 2 2 2,12,2 3,2:0:9;3:0:3,0 0 9 3 0,6,0,3
1,27,3 2 2 2 2 2 2 2 2 2 2 2 2,13,2 3,2:0:12;3:0:1,0 0 12 1 0,11,0,3
1,28,28,1,2 3,3:5:1,0 0 0 1 0,-1,5,28
1,28,23 3 2,3,2 3,2:0:1;3:0:1;3:4:1,0 0 1 2 0,-1,4,23
1,28,22 3 3,3,2 3,2:4:1;3:0:2,0 0 1 2 0,-1,4,22
1,28,22 2 2 2,4,2 3,2:0:3;2:4:1,0 0 4 0 0,4,4,22
1,28,18 8 2,3,2 3,2:0:1;3:1:1;3:3:1,0 0 1 2 0,-1,4,18
1,28,18 7 3,3,2 3,2:1:1;3:0:1;3:3:1,0 0 1 2 0,-1,4,18
1,28,18 3 3 2 2,5,2 3,2:0:2;3:0:2;3:3:1,0 0 2 3 0,-1,3,18
1,28,18 2 2 2 2 2,6,2 3,2:0:5;3:3:1,0 0 5 1 0,4,3,18
1,28,17 8 3,3,2 3,2:3:1;3:0:1;3:1:1,0 0 1 2 0,-1,4,17
1,28,17 7 2 2,4,2 3,2:0:2;2:1:1;2:3:1,0 0 4 0 0,4,4,17
1,28,17 3 3 3 2,5,2 3,2:0:1;2:3:1;3:0:3,0 0 2 3 0,-1,3,17
1,28,17 3 2 2 2 2,6,2 3,2:0:4;2:3:1;3:0:1,0 0 5 1 0,4,3,17
1,28,13 13 2,3,2 3,2:0:1;3:2:2,0 0 1 2 0,-1,4,13
1,28,13 12 3,3,2 3,2:2:1;3:0:1;3:2:1,0 0 1 2 0,-1,4,13
1,28,13 8 7,3,2 3,2:1:1;3:1:1;3:2:1,0 0 1 2 0,-1,4,13
1,28,13 8 3 2 2,5,2 3,2:0:2;3:0:1;3:1:1;3:2:1,0 0 2 3 0,-1,3,13
1,28,13 7 3 3 2,5,2 3,2:0:1;2:1:1;3:0:2;3:2:1,0 0 2 3 0,-1,3,13
1,28,13 7 2 2 2 2,6,2 3,2:0:4;2:1:1;3:2:1,0 0 5 1 0,4,3,13
1,28,13 3 3 3 3 3,6,2 3,3:0:5;3:2:1,0 0 0 6 0,-6,2,13
1,28,13 3 3 3 2 2 2,7,2 3,2:0:3;3:0:3;3:2:1,0 0 3 4 0,-1,2,13
1,28,13 3 2 2 2 2 2 2,8,2 3,2:0:6;3:0:1;3:2:1,0 0 6 2 0,4,2,13
1,28,12 12 2 2,4,2 3,2:0:2;2:2:2,0 0 4 0 0,4,4,12
1,28,12 8 8,3,2 3,2:2:1;3:1:2,0 0 1 2 0,-1,4,12
1,28,12 8 3 3 2,5,2 3,2:0:1;2:2:1;3:0:2;3:1:1,0 0 2 3 0,-1,3,12
1,28,12 8 2 2 2 2,6,2 3,2:0:4;2:2:1;3:1:1,0 0 5 1 0,4,3,12
1,28,12 7 7 2,4,2 3,2:0:1;2:1:2;2:2:1,0 0 4 0 0,4,4,12
1,28,12 7 3 3 3,5,2 3,2:1:1;2:2:1;3:0:3,0 0 2 3 0,-1,3,12
1,28,12 7 3 2 2 2,6,2 3,2:0:3;2:1:1;2:2:1;3:0:1,0 0 5 1 0,4,3,12
1,28,12 3 3 3 3 2 2,7,2 3,2:0:2;2:2:1;3:0:4,0 0 3 4 0,-1,2,12
1,28,12 3 3 2 2 2 2 2,8,2 3,2:0:5;2:2:1;3:0:2,0 0 6 2 0,4,2,12
1,28,12 2 2 2 2 2 2 2 2,9,2 3,2:0:8;2:2:1,0 0 9 0 0,9,2,12
1,28,8 8 8 2 2,5,2 3,2:0:2;3:1:3,0 0 2 3 0,-1,3,8
1,28,8 8 7 3 2,5,2 3,2:0:1;2:1:1;3:0:1;3:1:2,0 0 2 3 0,-1,3,8
1,28,8 8 3 3 3 3,6,2 3,3:0:4;3:1:2,0 0 0 6 0,-6,2,8
1,28,8 8 3 3 2 2 2,7,2 3,2:0:3;3:0:2;3:1:2,0 0 3 4 0,-1,2,8
1,28,8 8 2 2 2 2 2 2,8,2 3,2:0:6;3:1:2,0 0 6 2 0,4,2,8
1,28,8 7 7 3 3,5,2 3,2:1:2;3:0:2;3:1:1,0 0 2 3 0,-1,3,8
1,28,8 7 7 2 2 2,6,2 3,2:0:3;2:1:2;3:1:1,0 0 5 1 0,4,3,8
1,28,8 7 3 3 3 2 2,7,2 3,2:0:2;2:1:1;3:0:3;3:1:1,0 0 3 4 0,-1,2,8
1,28,8 7 3 2 2 2 2 2,8,2 3,2:0:5;2:1:1;3:0:1;3:1:1,0 0 6 2 0,4,2,8
1,28,8 3 3 3 3 3 3 2,8,2 3,2:0:1;3:0:6;3:1:1,0 0 1 7 0,-6,1,8
1,28,8 3 3 3 3 2 2 2 2,9,2 3,2:0:4;3:0:4;3:1:1,0 0 4 5 0,-1,1,8
1,28,8 3 3 2 2 2 2 2 2 2,10,2 3,2:0:7;3:0:2;3:1:1,0 0 7 3 0,4,1,8
1,28,8 2 2 2 2 2 2 2 2 2 2,11,2 3,2:0:10;3:1:1,0 0 10 1 0,9,1,8
1,28,7 7 7 7,4,2 3,2:1:4,0 0 4 0 0,4,4,7
1,28,7 7 7 3 2 2,6,2 3,2:0:2;2:1:3;3:0:1,0 0 5 1 0,4,3,7
1,28,7 7 3 3 3 3 2,7,2 3,2:0:1;2:1:2;3:0:4,0 0 3 4 0,-1,2,7
1,28,7 7 3 3 2 2 2 2,8,2 3,2:0:4;2:1:2;3:0:2,0 0 6 2 0,4,2,7
1,28,7 7 2 2 2 2 2 2 2,9,2 3,2:0:7;2:1:2,0 0 9 0 0,9,2,7
1,28,7 3 3 3 3 3 3 3,8,2 3,2:1:1;3:0:7,0 0 1 7 0,-6,1,7
1,28,7 3 3 3 3 3 2 2 2,9,2 3,2:0:3;2:1:1;3:0:5,0 0 4 5 0,-1,1,7
1,28,7 3 3 3 2 2 2 2 2 2,10,2 3,2:0:6;2:1:1;3:0:3,0 0 7 3 0,4,1,7
1,28,7 3 2 2 2 2 2 2 2 2 2,11,2 3,2:0:9;2:1:1;3:0:1,0 0 10 1 0,9,1,7
1,28,3 3 3 3 3 3 3 3 2 2,10,2 3,2:0:2;3:0:8,0 0 2 8 0,-6,0,3
1,28,3 3 3 3 3 3 2 2 2 2 2,11,2 3,2:0:5;3:0:6,0 0 5 6 0,-1,0,3
1,28,3 3 3 3 2 2 2 2 2 2 2 2,12,2 3,2:0:8;3:0:4,0 0 8 4 0,4,0,3
1,28,3 3 2 2 2 2 2 2 2 2 2 2 2,13,2 3,2:0:11;3:0:2,0 0 11 2 0,9,0,3
1,28,2 2 2 2 2 2 2 2 2 2 2 2 2 2,14,2 3,2:0:14,0 0 14 0 0,14,0,2
