alpha,weight,partition,length,staircase,mu,mu_residues,beta_set,beta_residues,shifted_beta,shifted_beta_residues,beta_runner_counts,shifted_runner_counts,beta_quotient_sum,shifted_quotient_sum
0,0,,0,,,,,,,,0 0 0 0 0,0 0 0 0 0,0,0
0,1,1,1,1,0,0,1,1,0,0,0 1 0 0 0,1 0 0 0 0,0,0
0,2,2,1,1,1,1,2,2,1,1,0 0 1 0 0,0 1 0 0 0,0,0
0,3,3,1,1,2,2,3,3,2,2,0 0 0 1 0,0 0 1 0 0,0,0
0,4,4,1,1,3,3,4,4,3,3,0 0 0 0 1,0 0 0 1 0,0,0
0,4,3 1,2,3 1,0 0,0 0,4 1,4 1,2 -1,2 4,0 1 0 0 1,0 0 1 0 1,0,-1
0,5,5,1,1,4,4,5,0,4,4,1 0 0 0 0,0 0 0 0 1,1,0
0,5,4 1,2,3 1,1 0,1 0,5 1,0 1,3 -1,3 4,1 1 0 0 0,0 0 0 1 1,1,-1
0,6,6,1,1,5,0,6,1,5,0,0 1 0 0 0,1 0 0 0 0,1,1
0,6,5 1,2,3 1,2 0,2 0,6 1,1 1,4 -1,4 4,0 2 0 0 0,0 0 0 0 2,1,-1
0,6,4 2,2,3 1,1 1,1 1,5 2,0 2,3 0,3 0,1 0 1 0 0,1 0 0 1 0,1,0
0,7,7,1,1,6,1,7,2,6,1,0 0 1 0 0,0 1 0 0 0,1,1
0,7,6 1,2,3 1,3 0,3 0,7 1,2 1,5 -1,0 4,0 1 1 0 0,1 0 0 0 1,1,0
0,7,5 2,2,3 1,2 1,2 1,6 2,1 2,4 0,4 0,0 1 1 0 0,1 0 0 0 1,1,0
0,8,8,1,1,7,2,8,3,7,2,0 0 0 1 0,0 0 1 0 0,1,1
0,8,7 1,2,3 1,4 0,4 0,8 1,3 1,6 -1,1 4,0 1 0 1 0,0 1 0 0 1,1,0
0,8,6 2,2,3 1,3 1,3 1,7 2,2 2,5 0,0 0,0 0 2 0 0,2 0 0 0 0,1,1
0,8,5 3,2,3 1,2 2,2 2,6 3,1 3,4 1,4 1,0 1 0 1 0,0 1 0 0 1,1,0
0,9,9,1,1,8,3,9,4,8,3,0 0 0 0 1,0 0 0 1 0,1,1
0,9,8 1,2,3 1,5 0,0 0,9 1,4 1,7 -1,2 4,0 1 0 0 1,0 0 1 0 1,1,0
0,9,7 2,2,3 1,4 1,4 1,8 2,3 2,6 0,1 0,0 0 1 1 0,1 1 0 0 0,1,1
0,9,6 3,2,3 1,3 2,3 2,7 3,2 3,5 1,0 1,0 0 1 1 0,1 1 0 0 0,1,1
0,9,5 3 1,3,5 3 1,0 0 0,0 0 0,7 4 1,2 4 1,4 1 -2,4 1 3,0 1 1 0 1,0 1 0 1 1,1,-1
0,10,10,1,1,9,4,10,0,9,4,1 0 0 0 0,0 0 0 0 1,2,1
0,10,9 1,2,3 1,6 0,1 0,10 1,0 1,8 -1,3 4,1 1 0 0 0,0 0 0 1 1,2,0
0,10,8 2,2,3 1,5 1,0 1,9 2,4 2,7 0,2 0,0 0 1 0 1,1 0 1 0 0,1,1
0,10,7 3,2,3 1,4 2,4 2,8 3,3 3,6 1,1 1,0 0 0 2 0,0 2 0 0 0,1,1
0,10,6 4,2,3 1,3 3,3 3,7 4,2 4,5 2,0 2,0 0 1 0 1,1 0 1 0 0,1,1
0,10,6 3 1,3,5 3 1,1 0 0,1 0 0,8 4 1,3 4 1,5 1 -2,0 1 3,0 1 0 1 1,1 1 0 1 0,1,0
0,11,11,1,1,10,0,11,1,10,0,0 1 0 0 0,1 0 0 0 0,2,2
0,11,10 1,2,3 1,7 0,2 0,11 1,1 1,9 -1,4 4,0 2 0 0 0,0 0 0 0 2,2,0
0,11,9 2,2,3 1,6 1,1 1,10 2,0 2,8 0,3 0,1 0 1 0 0,1 0 0 1 0,2,1
0,11,8 3,2,3 1,5 2,0 2,9 3,4 3,7 1,2 1,0 0 0 1 1,0 1 1 0 0,1,1
0,11,7 4,2,3 1,4 3,4 3,8 4,3 4,6 2,1 2,0 0 0 1 1,0 1 1 0 0,1,1
0,11,7 3 1,3,5 3 1,2 0 0,2 0 0,9 4 1,4 4 1,6 1 -2,1 1 3,0 1 0 0 2,0 2 0 1 0,1,0
0,11,6 4 1,3,5 3 1,1 1 0,1 1 0,8 5 1,3 0 1,5 2 -2,0 2 3,1 1 0 1 0,1 0 1 1 0,2,0
0,12,12,1,1,11,1,12,2,11,1,0 0 1 0 0,0 1 0 0 0,2,2
0,12,11 1,2,3 1,8 0,3 0,12 1,2 1,10 -1,0 4,0 1 1 0 0,1 0 0 0 1,2,1
0,12,10 2,2,3 1,7 1,2 1,11 2,1 2,9 0,4 0,0 1 1 0 0,1 0 0 0 1,2,1
0,12,9 3,2,3 1,6 2,1 2,10 3,0 3,8 1,3 1,1 0 0 1 0,0 1 0 1 0,2,1
0,12,8 4,2,3 1,5 3,0 3,9 4,4 4,7 2,2 2,0 0 0 0 2,0 0 2 0 0,1,1
0,12,8 3 1,3,5 3 1,3 0 0,3 0 0,10 4 1,0 4 1,7 1 -2,2 1 3,1 1 0 0 1,0 1 1 1 0,2,0
0,12,7 5,2,3 1,4 4,4 4,8 5,3 0,6 3,1 3,1 0 0 1 0,0 1 0 1 0,2,1
0,12,7 4 1,3,5 3 1,2 1 0,2 1 0,9 5 1,4 0 1,6 2 -2,1 2 3,1 1 0 0 1,0 1 1 1 0,2,0
0,12,6 4 2,3,5 3 1,1 1 1,1 1 1,8 5 2,3 0 2,5 2 -1,0 2 4,1 0 1 1 0,1 0 1 0 1,2,0
0,13,13,1,1,12,2,13,3,12,2,0 0 0 1 0,0 0 1 0 0,2,2
0,13,12 1,2,3 1,9 0,4 0,13 1,3 1,11 -1,1 4,0 1 0 1 0,0 1 0 0 1,2,1
0,13,11 2,2,3 1,8 1,3 1,12 2,2 2,10 0,0 0,0 0 2 0 0,2 0 0 0 0,2,2
0,13,10 3,2,3 1,7 2,2 2,11 3,1 3,9 1,4 1,0 1 0 1 0,0 1 0 0 1,2,1
0,13,9 4,2,3 1,6 3,1 3,10 4,0 4,8 2,3 2,1 0 0 0 1,0 0 1 1 0,2,1
0,13,9 3 1,3,5 3 1,4 0 0,4 0 0,11 4 1,1 4 1,8 1 -2,3 1 3,0 2 0 0 1,0 1 0 2 0,2,0
0,13,8 5,2,3 1,5 4,0 4,9 5,4 0,7 3,2 3,1 0 0 0 1,0 0 1 1 0,2,1
0,13,8 4 1,3,5 3 1,3 1 0,3 1 0,10 5 1,0 0 1,7 2 -2,2 2 3,2 1 0 0 0,0 0 2 1 0,3,0
0,13,7 5 1,3,5 3 1,2 2 0,2 2 0,9 6 1,4 1 1,6 3 -2,1 3 3,0 2 0 0 1,0 1 0 2 0,2,0
0,13,7 4 2,3,5 3 1,2 1 1,2 1 1,9 5 2,4 0 2,6 2 -1,1 2 4,1 0 1 0 1,0 1 1 0 1,2,0
0,14,14,1,1,13,3,14,4,13,3,0 0 0 0 1,0 0 0 1 0,2,2
0,14,13 1,2,3 1,10 0,0 0,14 1,4 1,12 -1,2 4,0 1 0 0 1,0 0 1 0 1,2,1
0,14,12 2,2,3 1,9 1,4 1,13 2,3 2,11 0,1 0,0 0 1 1 0,1 1 0 0 0,2,2
0,14,11 3,2,3 1,8 2,3 2,12 3,2 3,10 1,0 1,0 0 1 1 0,1 1 0 0 0,2,2
0,14,10 4,2,3 1,7 3,2 3,11 4,1 4,9 2,4 2,0 1 0 0 1,0 0 1 0 1,2,1
0,14,10 3 1,3,5 3 1,5 0 0,0 0 0,12 4 1,2 4 1,9 1 -2,4 1 3,0 1 1 0 1,0 1 0 1 1,2,0
0,14,9 5,2,3 1,6 4,1 4,10 5,0 0,8 3,3 3,2 0 0 0 0,0 0 0 2 0,3,1
0,14,9 4 1,3,5 3 1,4 1 0,4 1 0,11 5 1,1 0 1,8 2 -2,3 2 3,1 2 0 0 0,0 0 1 2 0,3,0
0,14,8 6,2,3 1,5 5,0 0,9 6,4 1,7 4,2 4,0 1 0 0 1,0 0 1 0 1,2,1
0,14,8 5 1,3,5 3 1,3 2 0,3 2 0,10 6 1,0 1 1,7 3 -2,2 3 3,1 2 0 0 0,0 0 1 2 0,3,0
0,14,8 4 2,3,5 3 1,3 1 1,3 1 1,10 5 2,0 0 2,7 2 -1,2 2 4,2 0 1 0 0,0 0 2 0 1,3,0
0,14,7 5 2,3,5 3 1,2 2 1,2 2 1,9 6 2,4 1 2,6 3 -1,1 3 4,0 1 1 0 1,0 1 0 1 1,2,0
0,15,15,1,1,14,4,15,0,14,4,1 0 0 0 0,0 0 0 0 1,3,2
0,15,14 1,2,3 1,11 0,1 0,15 1,0 1,13 -1,3 4,1 1 0 0 0,0 0 0 1 1,3,1
0,15,13 2,2,3 1,10 1,0 1,14 2,4 2,12 0,2 0,0 0 1 0 1,1 0 1 0 0,2,2
0,15,12 3,2,3 1,9 2,4 2,13 3,3 3,11 1,1 1,0 0 0 2 0,0 2 0 0 0,2,2
0,15,11 4,2,3 1,8 3,3 3,12 4,2 4,10 2,0 2,0 0 1 0 1,1 0 1 0 0,2,2
0,15,11 3 1,3,5 3 1,6 0 0,1 0 0,13 4 1,3 4 1,10 1 -2,0 1 3,0 1 0 1 1,1 1 0 1 0,2,1
0,15,10 5,2,3 1,7 4,2 4,11 5,1 0,9 3,4 3,1 1 0 0 0,0 0 0 1 1,3,1
0,15,10 4 1,3,5 3 1,5 1 0,0 1 0,12 5 1,2 0 1,9 2 -2,4 2 3,1 1 1 0 0,0 0 1 1 1,3,0
0,15,9 6,2,3 1,6 5,1 0,10 6,0 1,8 4,3 4,1 1 0 0 0,0 0 0 1 1,3,1
0,15,9 5 1,3,5 3 1,4 2 0,4 2 0,11 6 1,1 1 1,8 3 -2,3 3 3,0 3 0 0 0,0 0 0 3 0,3,0
0,15,9 4 2,3,5 3 1,4 1 1,4 1 1,11 5 2,1 0 2,8 2 -1,3 2 4,1 1 1 0 0,0 0 1 1 1,3,0
0,15,8 6 1,3,5 3 1,3 3 0,3 3 0,10 7 1,0 2 1,7 4 -2,2 4 3,1 1 1 0 0,0 0 1 1 1,3,0
0,15,8 5 2,3,5 3 1,3 2 1,3 2 1,10 6 2,0 1 2,7 3 -1,2 3 4,1 1 1 0 0,0 0 1 1 1,3,0
0,15,7 5 3,3,5 3 1,2 2 2,2 2 2,9 6 3,4 1 3,6 3 0,1 3 0,0 1 0 1 1,1 1 0 1 0,2,1
0,16,16,1,1,15,0,16,1,15,0,0 1 0 0 0,1 0 0 0 0,3,3
0,16,15 1,2,3 1,12 0,2 0,16 1,1 1,14 -1,4 4,0 2 0 0 0,0 0 0 0 2,3,1
0,16,14 2,2,3 1,11 1,1 1,15 2,0 2,13 0,3 0,1 0 1 0 0,1 0 0 1 0,3,2
0,16,13 3,2,3 1,10 2,0 2,14 3,4 3,12 1,2 1,0 0 0 1 1,0 1 1 0 0,2,2
0,16,12 4,2,3 1,9 3,4 3,13 4,3 4,11 2,1 2,0 0 0 1 1,0 1 1 0 0,2,2
0,16,12 3 1,3,5 3 1,7 0 0,2 0 0,14 4 1,4 4 1,11 1 -2,1 1 3,0 1 0 0 2,0 2 0 1 0,2,1
0,16,11 5,2,3 1,8 4,3 4,12 5,2 0,10 3,0 3,1 0 1 0 0,1 0 0 1 0,3,2
0,16,11 4 1,3,5 3 1,6 1 0,1 1 0,13 5 1,3 0 1,10 2 -2,0 2 3,1 1 0 1 0,1 0 1 1 0,3,1
0,16,10 6,2,3 1,7 5,2 0,11 6,1 1,9 4,4 4,0 2 0 0 0,0 0 0 0 2,3,1
0,16,10 5 1,3,5 3 1,5 2 0,0 2 0,12 6 1,2 1 1,9 3 -2,4 3 3,0 2 1 0 0,0 0 0 2 1,3,0
0,16,10 4 2,3,5 3 1,5 1 1,0 1 1,12 5 2,2 0 2,9 2 -1,4 2 4,1 0 2 0 0,0 0 1 0 2,3,0
0,16,9 7,2,3 1,6 6,1 1,10 7,0 2,8 5,3 0,1 0 1 0 0,1 0 0 1 0,3,2
0,16,9 6 1,3,5 3 1,4 3 0,4 3 0,11 7 1,1 2 1,8 4 -2,3 4 3,0 2 1 0 0,0 0 0 2 1,3,0
0,16,9 5 2,3,5 3 1,4 2 1,4 2 1,11 6 2,1 1 2,8 3 -1,3 3 4,0 2 1 0 0,0 0 0 2 1,3,0
0,16,8 6 2,3,5 3 1,3 3 1,3 3 1,10 7 2,0 2 2,7 4 -1,2 4 4,1 0 2 0 0,0 0 1 0 2,3,0
0,16,8 5 3,3,5 3 1,3 2 2,3 2 2,10 6 3,0 1 3,7 3 0,2 3 0,1 1 0 1 0,1 0 1 1 0,3,1
0,16,7 5 3 1,4,7 5 3 1,0 0 0 0,0 0 0 0,10 7 4 1,0 2 4 1,6 3 0 -3,1 3 0 2,1 1 1 0 1,1 1 1 1 0,3,0
0,17,17,1,1,16,1,17,2,16,1,0 0 1 0 0,0 1 0 0 0,3,3
0,17,16 1,2,3 1,13 0,3 0,17 1,2 1,15 -1,0 4,0 1 1 0 0,1 0 0 0 1,3,2
0,17,15 2,2,3 1,12 1,2 1,16 2,1 2,14 0,4 0,0 1 1 0 0,1 0 0 0 1,3,2
0,17,14 3,2,3 1,11 2,1 2,15 3,0 3,13 1,3 1,1 0 0 1 0,0 1 0 1 0,3,2
0,17,13 4,2,3 1,10 3,0 3,14 4,4 4,12 2,2 2,0 0 0 0 2,0 0 2 0 0,2,2
0,17,13 3 1,3,5 3 1,8 0 0,3 0 0,15 4 1,0 4 1,12 1 -2,2 1 3,1 1 0 0 1,0 1 1 1 0,3,1
0,17,12 5,2,3 1,9 4,4 4,13 5,3 0,11 3,1 3,1 0 0 1 0,0 1 0 1 0,3,2
0,17,12 4 1,3,5 3 1,7 1 0,2 1 0,14 5 1,4 0 1,11 2 -2,1 2 3,1 1 0 0 1,0 1 1 1 0,3,1
0,17,11 6,2,3 1,8 5,3 0,12 6,2 1,10 4,0 4,0 1 1 0 0,1 0 0 0 1,3,2
0,17,11 5 1,3,5 3 1,6 2 0,1 2 0,13 6 1,3 1 1,10 3 -2,0 3 3,0 2 0 1 0,1 0 0 2 0,3,1
0,17,11 4 2,3,5 3 1,6 1 1,1 1 1,13 5 2,3 0 2,10 2 -1,0 2 4,1 0 1 1 0,1 0 1 0 1,3,1
0,17,10 7,2,3 1,7 6,2 1,11 7,1 2,9 5,4 0,0 1 1 0 0,1 0 0 0 1,3,2
0,17,10 6 1,3,5 3 1,5 3 0,0 3 0,12 7 1,2 2 1,9 4 -2,4 4 3,0 1 2 0 0,0 0 0 1 2,3,0
0,17,10 5 2,3,5 3 1,5 2 1,0 2 1,12 6 2,2 1 2,9 3 -1,4 3 4,0 1 2 0 0,0 0 0 1 2,3,0
0,17,9 7 1,3,5 3 1,4 4 0,4 4 0,11 8 1,1 3 1,8 5 -2,3 0 3,0 2 0 1 0,1 0 0 2 0,3,1
0,17,9 6 2,3,5 3 1,4 3 1,4 3 1,11 7 2,1 2 2,8 4 -1,3 4 4,0 1 2 0 0,0 0 0 1 2,3,0
0,17,9 5 3,3,5 3 1,4 2 2,4 2 2,11 6 3,1 1 3,8 3 0,3 3 0,0 2 0 1 0,1 0 0 2 0,3,1
0,17,8 6 3,3,5 3 1,3 3 2,3 3 2,10 7 3,0 2 3,7 4 0,2 4 0,1 0 1 1 0,1 0 1 0 1,3,1
0,17,8 5 3 1,4,7 5 3 1,1 0 0 0,1 0 0 0,11 7 4 1,1 2 4 1,7 3 0 -3,2 3 0 2,0 2 1 0 1,1 0 2 1 0,3,0
0,18,18,1,1,17,2,18,3,17,2,0 0 0 1 0,0 0 1 0 0,3,3
0,18,17 1,2,3 1,14 0,4 0,18 1,3 1,16 -1,1 4,0 1 0 1 0,0 1 0 0 1,3,2
0,18,16 2,2,3 1,13 1,3 1,17 2,2 2,15 0,0 0,0 0 2 0 0,2 0 0 0 0,3,3
0,18,15 3,2,3 1,12 2,2 2,16 3,1 3,14 1,4 1,0 1 0 1 0,0 1 0 0 1,3,2
0,18,14 4,2,3 1,11 3,1 3,15 4,0 4,13 2,3 2,1 0 0 0 1,0 0 1 1 0,3,2
0,18,14 3 1,3,5 3 1,9 0 0,4 0 0,16 4 1,1 4 1,13 1 -2,3 1 3,0 2 0 0 1,0 1 0 2 0,3,1
0,18,13 5,2,3 1,10 4,0 4,14 5,4 0,12 3,2 3,1 0 0 0 1,0 0 1 1 0,3,2
0,18,13 4 1,3,5 3 1,8 1 0,3 1 0,15 5 1,0 0 1,12 2 -2,2 2 3,2 1 0 0 0,0 0 2 1 0,4,1
0,18,12 6,2,3 1,9 5,4 0,13 6,3 1,11 4,1 4,0 1 0 1 0,0 1 0 0 1,3,2
0,18,12 5 1,3,5 3 1,7 2 0,2 2 0,14 6 1,4 1 1,11 3 -2,1 3 3,0 2 0 0 1,0 1 0 2 0,3,1
0,18,12 4 2,3,5 3 1,7 1 1,2 1 1,14 5 2,4 0 2,11 2 -1,1 2 4,1 0 1 0 1,0 1 1 0 1,3,1
0,18,11 7,2,3 1,8 6,3 1,12 7,2 2,10 5,0 0,0 0 2 0 0,2 0 0 0 0,3,3
0,18,11 6 1,3,5 3 1,6 3 0,1 3 0,13 7 1,3 2 1,10 4 -2,0 4 3,0 1 1 1 0,1 0 0 1 1,3,1
0,18,11 5 2,3,5 3 1,6 2 1,1 2 1,13 6 2,3 1 2,10 3 -1,0 3 4,0 1 1 1 0,1 0 0 1 1,3,1
0,18,10 8,2,3 1,7 7,2 2,11 8,1 3,9 6,4 1,0 1 0 1 0,0 1 0 0 1,3,2
0,18,10 7 1,3,5 3 1,5 4 0,0 4 0,12 8 1,2 3 1,9 5 -2,4 0 3,0 1 1 1 0,1 0 0 1 1,3,1
0,18,10 6 2,3,5 3 1,5 3 1,0 3 1,12 7 2,2 2 2,9 4 -1,4 4 4,0 0 3 0 0,0 0 0 0 3,3,0
0,18,10 5 3,3,5 3 1,5 2 2,0 2 2,12 6 3,2 1 3,9 3 0,4 3 0,0 1 1 1 0,1 0 0 1 1,3,1
0,18,9 7 2,3,5 3 1,4 4 1,4 4 1,11 8 2,1 3 2,8 5 -1,3 0 4,0 1 1 1 0,1 0 0 1 1,3,1
0,18,9 6 3,3,5 3 1,4 3 2,4 3 2,11 7 3,1 2 3,8 4 0,3 4 0,0 1 1 1 0,1 0 0 1 1,3,1
0,18,9 5 3 1,4,7 5 3 1,2 0 0 0,2 0 0 0,12 7 4 1,2 2 4 1,8 3 0 -3,3 3 0 2,0 1 2 0 1,1 0 1 2 0,3,0
0,18,8 6 4,3,5 3 1,3 3 3,3 3 3,10 7 4,0 2 4,7 4 1,2 4 1,1 0 1 0 1,0 1 1 0 1,3,1
0,18,8 6 3 1,4,7 5 3 1,1 1 0 0,1 1 0 0,11 8 4 1,1 3 4 1,7 4 0 -3,2 4 0 2,0 2 0 1 1,1 0 2 0 1,3,0
0,19,19,1,1,18,3,19,4,18,3,0 0 0 0 1,0 0 0 1 0,3,3
0,19,18 1,2,3 1,15 0,0 0,19 1,4 1,17 -1,2 4,0 1 0 0 1,0 0 1 0 1,3,2
0,19,17 2,2,3 1,14 1,4 1,18 2,3 2,16 0,1 0,0 0 1 1 0,1 1 0 0 0,3,3
0,19,16 3,2,3 1,13 2,3 2,17 3,2 3,15 1,0 1,0 0 1 1 0,1 1 0 0 0,3,3
0,19,15 4,2,3 1,12 3,2 3,16 4,1 4,14 2,4 2,0 1 0 0 1,0 0 1 0 1,3,2
0,19,15 3 1,3,5 3 1,10 0 0,0 0 0,17 4 1,2 4 1,14 1 -2,4 1 3,0 1 1 0 1,0 1 0 1 1,3,1
0,19,14 5,2,3 1,11 4,1 4,15 5,0 0,13 3,3 3,2 0 0 0 0,0 0 0 2 0,4,2
0,19,14 4 1,3,5 3 1,9 1 0,4 1 0,16 5 1,1 0 1,13 2 -2,3 2 3,1 2 0 0 0,0 0 1 2 0,4,1
0,19,13 6,2,3 1,10 5,0 0,14 6,4 1,12 4,2 4,0 1 0 0 1,0 0 1 0 1,3,2
0,19,13 5 1,3,5 3 1,8 2 0,3 2 0,15 6 1,0 1 1,12 3 -2,2 3 3,1 2 0 0 0,0 0 1 2 0,4,1
0,19,13 4 2,3,5 3 1,8 1 1,3 1 1,15 5 2,0 0 2,12 2 -1,2 2 4,2 0 1 0 0,0 0 2 0 1,4,1
0,19,12 7,2,3 1,9 6,4 1,13 7,3 2,11 5,1 0,0 0 1 1 0,1 1 0 0 0,3,3
0,19,12 6 1,3,5 3 1,7 3 0,2 3 0,14 7 1,4 2 1,11 4 -2,1 4 3,0 1 1 0 1,0 1 0 1 1,3,1
0,19,12 5 2,3,5 3 1,7 2 1,2 2 1,14 6 2,4 1 2,11 3 -1,1 3 4,0 1 1 0 1,0 1 0 1 1,3,1
0,19,11 8,2,3 1,8 7,3 2,12 8,2 3,10 6,0 1,0 0 1 1 0,1 1 0 0 0,3,3
0,19,11 7 1,3,5 3 1,6 4 0,1 4 0,13 8 1,3 3 1,10 5 -2,0 0 3,0 1 0 2 0,2 0 0 1 0,3,2
0,19,11 6 2,3,5 3 1,6 3 1,1 3 1,13 7 2,3 2 2,10 4 -1,0 4 4,0 0 2 1 0,1 0 0 0 2,3,1
0,19,11 5 3,3,5 3 1,6 2 2,1 2 2,13 6 3,3 1 3,10 3 0,0 3 0,0 1 0 2 0,2 0 0 1 0,3,2
0,19,10 8 1,3,5 3 1,5 5 0,0 0 0,12 9 1,2 4 1,9 6 -2,4 1 3,0 1 1 0 1,0 1 0 1 1,3,1
0,19,10 7 2,3,5 3 1,5 4 1,0 4 1,12 8 2,2 3 2,9 5 -1,4 0 4,0 0 2 1 0,1 0 0 0 2,3,1
0,19,10 6 3,3,5 3 1,5 3 2,0 3 2,12 7 3,2 2 3,9 4 0,4 4 0,0 0 2 1 0,1 0 0 0 2,3,1
0,19,10 5 3 1,4,7 5 3 1,3 0 0 0,3 0 0 0,13 7 4 1,3 2 4 1,9 3 0 -3,4 3 0 2,0 1 1 1 1,1 0 1 1 1,3,0
0,19,9 7 3,3,5 3 1,4 4 2,4 4 2,11 8 3,1 3 3,8 5 0,3 0 0,0 1 0 2 0,2 0 0 1 0,3,2
0,19,9 6 4,3,5 3 1,4 3 3,4 3 3,11 7 4,1 2 4,8 4 1,3 4 1,0 1 1 0 1,0 1 0 1 1,3,1
0,19,9 6 3 1,4,7 5 3 1,2 1 0 0,2 1 0 0,12 8 4 1,2 3 4 1,8 4 0 -3,3 4 0 2,0 1 1 1 1,1 0 1 1 1,3,0
0,19,8 6 4 1,4,7 5 3 1,1 1 1 0,1 1 1 0,11 8 5 1,1 3 0 1,7 4 1 -3,2 4 1 2,1 2 0 1 0,0 1 2 0 1,4,0
0,20,20,1,1,19,4,20,0,19,4,1 0 0 0 0,0 0 0 0 1,4,3
0,20,19 1,2,3 1,16 0,1 0,20 1,0 1,18 -1,3 4,1 1 0 0 0,0 0 0 1 1,4,2
0,20,18 2,2,3 1,15 1,0 1,19 2,4 2,17 0,2 0,0 0 1 0 1,1 0 1 0 0,3,3
0,20,17 3,2,3 1,14 2,4 2,18 3,3 3,16 1,1 1,0 0 0 2 0,0 2 0 0 0,3,3
0,20,16 4,2,3 1,13 3,3 3,17 4,2 4,15 2,0 2,0 0 1 0 1,1 0 1 0 0,3,3
0,20,16 3 1,3,5 3 1,11 0 0,1 0 0,18 4 1,3 4 1,15 1 -2,0 1 3,0 1 0 1 1,1 1 0 1 0,3,2
0,20,15 5,2,3 1,12 4,2 4,16 5,1 0,14 3,4 3,1 1 0 0 0,0 0 0 1 1,4,2
0,20,15 4 1,3,5 3 1,10 1 0,0 1 0,17 5 1,2 0 1,14 2 -2,4 2 3,1 1 1 0 0,0 0 1 1 1,4,1
0,20,14 6,2,3 1,11 5,1 0,15 6,0 1,13 4,3 4,1 1 0 0 0,0 0 0 1 1,4,2
0,20,14 5 1,3,5 3 1,9 2 0,4 2 0,16 6 1,1 1 1,13 3 -2,3 3 3,0 3 0 0 0,0 0 0 3 0,4,1
0,20,14 4 2,3,5 3 1,9 1 1,4 1 1,16 5 2,1 0 2,13 2 -1,3 2 4,1 1 1 0 0,0 0 1 1 1,4,1
0,20,13 7,2,3 1,10 6,0 1,14 7,4 2,12 5,2 0,0 0 1 0 1,1 0 1 0 0,3,3
0,20,13 6 1,3,5 3 1,8 3 0,3 3 0,15 7 1,0 2 1,12 4 -2,2 4 3,1 1 1 0 0,0 0 1 1 1,4,1
0,20,13 5 2,3,5 3 1,8 2 1,3 2 1,15 6 2,0 1 2,12 3 -1,2 3 4,1 1 1 0 0,0 0 1 1 1,4,1
0,20,12 8,2,3 1,9 7,4 2,13 8,3 3,11 6,1 1,0 0 0 2 0,0 2 0 0 0,3,3
0,20,12 7 1,3,5 3 1,7 4 0,2 4 0,14 8 1,4 3 1,11 5 -2,1 0 3,0 1 0 1 1,1 1 0 1 0,3,2
0,20,12 6 2,3,5 3 1,7 3 1,2 3 1,14 7 2,4 2 2,11 4 -1,1 4 4,0 0 2 0 1,0 1 0 0 2,3,1
0,20,12 5 3,3,5 3 1,7 2 2,2 2 2,14 6 3,4 1 3,11 3 0,1 3 0,0 1 0 1 1,1 1 0 1 0,3,2
0,20,11 9,2,3 1,8 8,3 3,12 9,2 4,10 7,0 2,0 0 1 0 1,1 0 1 0 0,3,3
0,20,11 8 1,3,5 3 1,6 5 0,1 0 0,13 9 1,3 4 1,10 6 -2,0 1 3,0 1 0 1 1,1 1 0 1 0,3,2
0,20,11 7 2,3,5 3 1,6 4 1,1 4 1,13 8 2,3 3 2,10 5 -1,0 0 4,0 0 1 2 0,2 0 0 0 1,3,2
0,20,11 6 3,3,5 3 1,6 3 2,1 3 2,13 7 3,3 2 3,10 4 0,0 4 0,0 0 1 2 0,2 0 0 0 1,3,2
0,20,11 5 3 1,4,7 5 3 1,4 0 0 0,4 0 0 0,14 7 4 1,4 2 4 1,10 3 0 -3,0 3 0 2,0 1 1 0 2,2 0 1 1 0,3,1
0,20,10 8 2,3,5 3 1,5 5 1,0 0 1,12 9 2,2 4 2,9 6 -1,4 1 4,0 0 2 0 1,0 1 0 0 2,3,1
0,20,10 7 3,3,5 3 1,5 4 2,0 4 2,12 8 3,2 3 3,9 5 0,4 0 0,0 0 1 2 0,2 0 0 0 1,3,2
0,20,10 6 4,3,5 3 1,5 3 3,0 3 3,12 7 4,2 2 4,9 4 1,4 4 1,0 0 2 0 1,0 1 0 0 2,3,1
0,20,10 6 3 1,4,7 5 3 1,3 1 0 0,3 1 0 0,13 8 4 1,3 3 4 1,9 4 0 -3,4 4 0 2,0 1 0 2 1,1 0 1 0 2,3,0
0,20,9 7 4,3,5 3 1,4 4 3,4 4 3,11 8 4,1 3 4,8 5 1,3 0 1,0 1 0 1 1,1 1 0 1 0,3,2
0,20,9 7 3 1,4,7 5 3 1,2 2 0 0,2 2 0 0,12 9 4 1,2 4 4 1,8 5 0 -3,3 0 0 2,0 1 1 0 2,2 0 1 1 0,3,1
0,20,9 6 4 1,4,7 5 3 1,2 1 1 0,2 1 1 0,12 8 5 1,2 3 0 1,8 4 1 -3,3 4 1 2,1 1 1 1 0,0 1 1 1 1,4,0
0,20,8 6 4 2,4,7 5 3 1,1 1 1 1,1 1 1 1,11 8 5 2,1 3 0 2,7 4 1 -2,2 4 1 3,1 1 1 1 0,0 1 1 1 1,4,0
0,21,21,1,1,20,0,21,1,20,0,0 1 0 0 0,1 0 0 0 0,4,4
0,21,20 1,2,3 1,17 0,2 0,21 1,1 1,19 -1,4 4,0 2 0 0 0,0 0 0 0 2,4,2
0,21,19 2,2,3 1,16 1,1 1,20 2,0 2,18 0,3 0,1 0 1 0 0,1 0 0 1 0,4,3
0,21,18 3,2,3 1,15 2,0 2,19 3,4 3,17 1,2 1,0 0 0 1 1,0 1 1 0 0,3,3
0,21,17 4,2,3 1,14 3,4 3,18 4,3 4,16 2,1 2,0 0 0 1 1,0 1 1 0 0,3,3
0,21,17 3 1,3,5 3 1,12 0 0,2 0 0,19 4 1,4 4 1,16 1 -2,1 1 3,0 1 0 0 2,0 2 0 1 0,3,2
0,21,16 5,2,3 1,13 4,3 4,17 5,2 0,15 3,0 3,1 0 1 0 0,1 0 0 1 0,4,3
0,21,16 4 1,3,5 3 1,11 1 0,1 1 0,18 5 1,3 0 1,15 2 -2,0 2 3,1 1 0 1 0,1 0 1 1 0,4,2
0,21,15 6,2,3 1,12 5,2 0,16 6,1 1,14 4,4 4,0 2 0 0 0,0 0 0 0 2,4,2
0,21,15 5 1,3,5 3 1,10 2 0,0 2 0,17 6 1,2 1 1,14 3 -2,4 3 3,0 2 1 0 0,0 0 0 2 1,4,1
0,21,15 4 2,3,5 3 1,10 1 1,0 1 1,17 5 2,2 0 2,14 2 -1,4 2 4,1 0 2 0 0,0 0 1 0 2,4,1
0,21,14 7,2,3 1,11 6,1 1,15 7,0 2,13 5,3 0,1 0 1 0 0,1 0 0 1 0,4,3
0,21,14 6 1,3,5 3 1,9 3 0,4 3 0,16 7 1,1 2 1,13 4 -2,3 4 3,0 2 1 0 0,0 0 0 2 1,4,1
0,21,14 5 2,3,5 3 1,9 2 1,4 2 1,16 6 2,1 1 2,13 3 -1,3 3 4,0 2 1 0 0,0 0 0 2 1,4,1
0,21,13 8,2,3 1,10 7,0 2,14 8,4 3,12 6,2 1,0 0 0 1 1,0 1 1 0 0,3,3
0,21,13 7 1,3,5 3 1,8 4 0,3 4 0,15 8 1,0 3 1,12 5 -2,2 0 3,1 1 0 1 0,1 0 1 1 0,4,2
0,21,13 6 2,3,5 3 1,8 3 1,3 3 1,15 7 2,0 2 2,12 4 -1,2 4 4,1 0 2 0 0,0 0 1 0 2,4,1
0,21,13 5 3,3,5 3 1,8 2 2,3 2 2,15 6 3,0 1 3,12 3 0,2 3 0,1 1 0 1 0,1 0 1 1 0,4,2
0,21,12 9,2,3 1,9 8,4 3,13 9,3 4,11 7,1 2,0 0 0 1 1,0 1 1 0 0,3,3
0,21,12 8 1,3,5 3 1,7 5 0,2 0 0,14 9 1,4 4 1,11 6 -2,1 1 3,0 1 0 0 2,0 2 0 1 0,3,2
0,21,12 7 2,3,5 3 1,7 4 1,2 4 1,14 8 2,4 3 2,11 5 -1,1 0 4,0 0 1 1 1,1 1 0 0 1,3,2
0,21,12 6 3,3,5 3 1,7 3 2,2 3 2,14 7 3,4 2 3,11 4 0,1 4 0,0 0 1 1 1,1 1 0 0 1,3,2
0,21,12 5 3 1,4,7 5 3 1,5 0 0 0,0 0 0 0,15 7 4 1,0 2 4 1,11 3 0 -3,1 3 0 2,1 1 1 0 1,1 1 1 1 0,4,1
0,21,11 9 1,3,5 3 1,6 6 0,1 1 0,13 10 1,3 0 1,10 7 -2,0 2 3,1 1 0 1 0,1 0 1 1 0,4,2
0,21,11 8 2,3,5 3 1,6 5 1,1 0 1,13 9 2,3 4 2,10 6 -1,0 1 4,0 0 1 1 1,1 1 0 0 1,3,2
0,21,11 7 3,3,5 3 1,6 4 2,1 4 2,13 8 3,3 3 3,10 5 0,0 0 0,0 0 0 3 0,3 0 0 0 0,3,3
0,21,11 6 4,3,5 3 1,6 3 3,1 3 3,13 7 4,3 2 4,10 4 1,0 4 1,0 0 1 1 1,1 1 0 0 1,3,2
0,21,11 6 3 1,4,7 5 3 1,4 1 0 0,4 1 0 0,14 8 4 1,4 3 4 1,10 4 0 -3,0 4 0 2,0 1 0 1 2,2 0 1 0 1,3,1
0,21,10 8 3,3,5 3 1,5 5 2,0 0 2,12 9 3,2 4 3,9 6 0,4 1 0,0 0 1 1 1,1 1 0 0 1,3,2
0,21,10 7 4,3,5 3 1,5 4 3,0 4 3,12 8 4,2 3 4,9 5 1,4 0 1,0 0 1 1 1,1 1 0 0 1,3,2
0,21,10 7 3 1,4,7 5 3 1,3 2 0 0,3 2 0 0,13 9 4 1,3 4 4 1,9 5 0 -3,4 0 0 2,0 1 0 1 2,2 0 1 0 1,3,1
0,21,10 6 4 1,4,7 5 3 1,3 1 1 0,3 1 1 0,13 8 5 1,3 3 0 1,9 4 1 -3,4 4 1 2,1 1 0 2 0,0 1 1 0 2,4,0
0,21,9 7 5,3,5 3 1,4 4 4,4 4 4,11 8 5,1 3 0,8 5 2,3 0 2,1 1 0 1 0,1 0 1 1 0,4,2
0,21,9 7 4 1,4,7 5 3 1,2 2 1 0,2 2 1 0,12 9 5 1,2 4 0 1,8 5 1 -3,3 0 1 2,1 1 1 0 1,1 1 1 1 0,4,1
0,21,9 6 4 2,4,7 5 3 1,2 1 1 1,2 1 1 1,12 8 5 2,2 3 0 2,8 4 1 -2,3 4 1 3,1 0 2 1 0,0 1 0 2 1,4,0
0,22,22,1,1,21,1,22,2,21,1,0 0 1 0 0,0 1 0 0 0,4,4
0,22,21 1,2,3 1,18 0,3 0,22 1,2 1,20 -1,0 4,0 1 1 0 0,1 0 0 0 1,4,3
0,22,20 2,2,3 1,17 1,2 1,21 2,1 2,19 0,4 0,0 1 1 0 0,1 0 0 0 1,4,3
0,22,19 3,2,3 1,16 2,1 2,20 3,0 3,18 1,3 1,1 0 0 1 0,0 1 0 1 0,4,3
0,22,18 4,2,3 1,15 3,0 3,19 4,4 4,17 2,2 2,0 0 0 0 2,0 0 2 0 0,3,3
0,22,18 3 1,3,5 3 1,13 0 0,3 0 0,20 4 1,0 4 1,17 1 -2,2 1 3,1 1 0 0 1,0 1 1 1 0,4,2
0,22,17 5,2,3 1,14 4,4 4,18 5,3 0,16 3,1 3,1 0 0 1 0,0 1 0 1 0,4,3
0,22,17 4 1,3,5 3 1,12 1 0,2 1 0,19 5 1,4 0 1,16 2 -2,1 2 3,1 1 0 0 1,0 1 1 1 0,4,2
0,22,16 6,2,3 1,13 5,3 0,17 6,2 1,15 4,0 4,0 1 1 0 0,1 0 0 0 1,4,3
0,22,16 5 1,3,5 3 1,11 2 0,1 2 0,18 6 1,3 1 1,15 3 -2,0 3 3,0 2 0 1 0,1 0 0 2 0,4,2
0,22,16 4 2,3,5 3 1,11 1 1,1 1 1,18 5 2,3 0 2,15 2 -1,0 2 4,1 0 1 1 0,1 0 1 0 1,4,2
0,22,15 7,2,3 1,12 6,2 1,16 7,1 2,14 5,4 0,0 1 1 0 0,1 0 0 0 1,4,3
0,22,15 6 1,3,5 3 1,10 3 0,0 3 0,17 7 1,2 2 1,14 4 -2,4 4 3,0 1 2 0 0,0 0 0 1 2,4,1
0,22,15 5 2,3,5 3 1,10 2 1,0 2 1,17 6 2,2 1 2,14 3 -1,4 3 4,0 1 2 0 0,0 0 0 1 2,4,1
0,22,14 8,2,3 1,11 7,1 2,15 8,0 3,13 6,3 1,1 0 0 1 0,0 1 0 1 0,4,3
0,22,14 7 1,3,5 3 1,9 4 0,4 4 0,16 8 1,1 3 1,13 5 -2,3 0 3,0 2 0 1 0,1 0 0 2 0,4,2
0,22,14 6 2,3,5 3 1,9 3 1,4 3 1,16 7 2,1 2 2,13 4 -1,3 4 4,0 1 2 0 0,0 0 0 1 2,4,1
0,22,14 5 3,3,5 3 1,9 2 2,4 2 2,16 6 3,1 1 3,13 3 0,3 3 0,0 2 0 1 0,1 0 0 2 0,4,2
0,22,13 9,2,3 1,10 8,0 3,14 9,4 4,12 7,2 2,0 0 0 0 2,0 0 2 0 0,3,3
0,22,13 8 1,3,5 3 1,8 5 0,3 0 0,15 9 1,0 4 1,12 6 -2,2 1 3,1 1 0 0 1,0 1 1 1 0,4,2
0,22,13 7 2,3,5 3 1,8 4 1,3 4 1,15 8 2,0 3 2,12 5 -1,2 0 4,1 0 1 1 0,1 0 1 0 1,4,2
0,22,13 6 3,3,5 3 1,8 3 2,3 3 2,15 7 3,0 2 3,12 4 0,2 4 0,1 0 1 1 0,1 0 1 0 1,4,2
0,22,13 5 3 1,4,7 5 3 1,6 0 0 0,1 0 0 0,16 7 4 1,1 2 4 1,12 3 0 -3,2 3 0 2,0 2 1 0 1,1 0 2 1 0,4,1
0,22,12 10,2,3 1,9 9,4 4,13 10,3 0,11 8,1 3,1 0 0 1 0,0 1 0 1 0,4,3
0,22,12 9 1,3,5 3 1,7 6 0,2 1 0,14 10 1,4 0 1,11 7 -2,1 2 3,1 1 0 0 1,0 1 1 1 0,4,2
0,22,12 8 2,3,5 3 1,7 5 1,2 0 1,14 9 2,4 4 2,11 6 -1,1 1 4,0 0 1 0 2,0 2 0 0 1,3,2
0,22,12 7 3,3,5 3 1,7 4 2,2 4 2,14 8 3,4 3 3,11 5 0,1 0 0,0 0 0 2 1,2 1 0 0 0,3,3
0,22,12 6 4,3,5 3 1,7 3 3,2 3 3,14 7 4,4 2 4,11 4 1,1 4 1,0 0 1 0 2,0 2 0 0 1,3,2
0,22,12 6 3 1,4,7 5 3 1,5 1 0 0,0 1 0 0,15 8 4 1,0 3 4 1,11 4 0 -3,1 4 0 2,1 1 0 1 1,1 1 1 0 1,4,1
0,22,11 9 2,3,5 3 1,6 6 1,1 1 1,13 10 2,3 0 2,10 7 -1,0 2 4,1 0 1 1 0,1 0 1 0 1,4,2
0,22,11 8 3,3,5 3 1,6 5 2,1 0 2,13 9 3,3 4 3,10 6 0,0 1 0,0 0 0 2 1,2 1 0 0 0,3,3
0,22,11 7 4,3,5 3 1,6 4 3,1 4 3,13 8 4,3 3 4,10 5 1,0 0 1,0 0 0 2 1,2 1 0 0 0,3,3
0,22,11 7 3 1,4,7 5 3 1,4 2 0 0,4 2 0 0,14 9 4 1,4 4 4 1,10 5 0 -3,0 0 0 2,0 1 0 0 3,3 0 1 0 0,3,2
0,22,11 6 4 1,4,7 5 3 1,4 1 1 0,4 1 1 0,14 8 5 1,4 3 0 1,10 4 1 -3,0 4 1 2,1 1 0 1 1,1 1 1 0 1,4,1
0,22,10 8 4,3,5 3 1,5 5 3,0 0 3,12 9 4,2 4 4,9 6 1,4 1 1,0 0 1 0 2,0 2 0 0 1,3,2
0,22,10 8 3 1,4,7 5 3 1,3 3 0 0,3 3 0 0,13 10 4 1,3 0 4 1,9 6 0 -3,4 1 0 2,1 1 0 1 1,1 1 1 0 1,4,1
0,22,10 7 5,3,5 3 1,5 4 4,0 4 4,12 8 5,2 3 0,9 5 2,4 0 2,1 0 1 1 0,1 0 1 0 1,4,2
0,22,10 7 4 1,4,7 5 3 1,3 2 1 0,3 2 1 0,13 9 5 1,3 4 0 1,9 5 1 -3,4 0 1 2,1 1 0 1 1,1 1 1 0 1,4,1
0,22,10 6 4 2,4,7 5 3 1,3 1 1 1,3 1 1 1,13 8 5 2,3 3 0 2,9 4 1 -2,4 4 1 3,1 0 1 2 0,0 1 0 1 2,4,0
0,22,9 7 5 1,4,7 5 3 1,2 2 2 0,2 2 2 0,12 9 6 1,2 4 1 1,8 5 2 -3,3 0 2 2,0 2 1 0 1,1 0 2 1 0,4,1
0,22,9 7 4 2,4,7 5 3 1,2 2 1 1,2 2 1 1,12 9 5 2,2 4 0 2,8 5 1 -2,3 0 1 3,1 0 2 0 1,1 1 0 2 0,4,1
0,23,23,1,1,22,2,23,3,22,2,0 0 0 1 0,0 0 1 0 0,4,4
0,23,22 1,2,3 1,19 0,4 0,23 1,3 1,21 -1,1 4,0 1 0 1 0,0 1 0 0 1,4,3
0,23,21 2,2,3 1,18 1,3 1,22 2,2 2,20 0,0 0,0 0 2 0 0,2 0 0 0 0,4,4
0,23,20 3,2,3 1,17 2,2 2,21 3,1 3,19 1,4 1,0 1 0 1 0,0 1 0 0 1,4,3
0,23,19 4,2,3 1,16 3,1 3,20 4,0 4,18 2,3 2,1 0 0 0 1,0 0 1 1 0,4,3
0,23,19 3 1,3,5 3 1,14 0 0,4 0 0,21 4 1,1 4 1,18 1 -2,3 1 3,0 2 0 0 1,0 1 0 2 0,4,2
0,23,18 5,2,3 1,15 4,0 4,19 5,4 0,17 3,2 3,1 0 0 0 1,0 0 1 1 0,4,3
0,23,18 4 1,3,5 3 1,13 1 0,3 1 0,20 5 1,0 0 1,17 2 -2,2 2 3,2 1 0 0 0,0 0 2 1 0,5,2
0,23,17 6,2,3 1,14 5,4 0,18 6,3 1,16 4,1 4,0 1 0 1 0,0 1 0 0 1,4,3
0,23,17 5 1,3,5 3 1,12 2 0,2 2 0,19 6 1,4 1 1,16 3 -2,1 3 3,0 2 0 0 1,0 1 0 2 0,4,2
0,23,17 4 2,3,5 3 1,12 1 1,2 1 1,19 5 2,4 0 2,16 2 -1,1 2 4,1 0 1 0 1,0 1 1 0 1,4,2
0,23,16 7,2,3 1,13 6,3 1,17 7,2 2,15 5,0 0,0 0 2 0 0,2 0 0 0 0,4,4
0,23,16 6 1,3,5 3 1,11 3 0,1 3 0,18 7 1,3 2 1,15 4 -2,0 4 3,0 1 1 1 0,1 0 0 1 1,4,2
0,23,16 5 2,3,5 3 1,11 2 1,1 2 1,18 6 2,3 1 2,15 3 -1,0 3 4,0 1 1 1 0,1 0 0 1 1,4,2
0,23,15 8,2,3 1,12 7,2 2,16 8,1 3,14 6,4 1,0 1 0 1 0,0 1 0 0 1,4,3
0,23,15 7 1,3,5 3 1,10 4 0,0 4 0,17 8 1,2 3 1,14 5 -2,4 0 3,0 1 1 1 0,1 0 0 1 1,4,2
0,23,15 6 2,3,5 3 1,10 3 1,0 3 1,17 7 2,2 2 2,14 4 -1,4 4 4,0 0 3 0 0,0 0 0 0 3,4,1
0,23,15 5 3,3,5 3 1,10 2 2,0 2 2,17 6 3,2 1 3,14 3 0,4 3 0,0 1 1 1 0,1 0 0 1 1,4,2
0,23,14 9,2,3 1,11 8,1 3,15 9,0 4,13 7,3 2,1 0 0 0 1,0 0 1 1 0,4,3
0,23,14 8 1,3,5 3 1,9 5 0,4 0 0,16 9 1,1 4 1,13 6 -2,3 1 3,0 2 0 0 1,0 1 0 2 0,4,2
0,23,14 7 2,3,5 3 1,9 4 1,4 4 1,16 8 2,1 3 2,13 5 -1,3 0 4,0 1 1 1 0,1 0 0 1 1,4,2
0,23,14 6 3,3,5 3 1,9 3 2,4 3 2,16 7 3,1 2 3,13 4 0,3 4 0,0 1 1 1 0,1 0 0 1 1,4,2
0,23,14 5 3 1,4,7 5 3 1,7 0 0 0,2 0 0 0,17 7 4 1,2 2 4 1,13 3 0 -3,3 3 0 2,0 1 2 0 1,1 0 1 2 0,4,1
0,23,13 10,2,3 1,10 9,0 4,14 10,4 0,12 8,2 3,1 0 0 0 1,0 0 1 1 0,4,3
0,23,13 9 1,3,5 3 1,8 6 0,3 1 0,15 10 1,0 0 1,12 7 -2,2 2 3,2 1 0 0 0,0 0 2 1 0,5,2
0,23,13 8 2,3,5 3 1,8 5 1,3 0 1,15 9 2,0 4 2,12 6 -1,2 1 4,1 0 1 0 1,0 1 1 0 1,4,2
0,23,13 7 3,3,5 3 1,8 4 2,3 4 2,15 8 3,0 3 3,12 5 0,2 0 0,1 0 0 2 0,2 0 1 0 0,4,3
0,23,13 6 4,3,5 3 1,8 3 3,3 3 3,15 7 4,0 2 4,12 4 1,2 4 1,1 0 1 0 1,0 1 1 0 1,4,2
0,23,13 6 3 1,4,7 5 3 1,6 1 0 0,1 1 0 0,16 8 4 1,1 3 4 1,12 4 0 -3,2 4 0 2,0 2 0 1 1,1 0 2 0 1,4,1
0,23,12 10 1,3,5 3 1,7 7 0,2 2 0,14 11 1,4 1 1,11 8 -2,1 3 3,0 2 0 0 1,0 1 0 2 0,4,2
0,23,12 9 2,3,5 3 1,7 6 1,2 1 1,14 10 2,4 0 2,11 7 -1,1 2 4,1 0 1 0 1,0 1 1 0 1,4,2
0,23,12 8 3,3,5 3 1,7 5 2,2 0 2,14 9 3,4 4 3,11 6 0,1 1 0,0 0 0 1 2,1 2 0 0 0,3,3
0,23,12 7 4,3,5 3 1,7 4 3,2 4 3,14 8 4,4 3 4,11 5 1,1 0 1,0 0 0 1 2,1 2 0 0 0,3,3
0,23,12 7 3 1,4,7 5 3 1,5 2 0 0,0 2 0 0,15 9 4 1,0 4 4 1,11 5 0 -3,1 0 0 2,1 1 0 0 2,2 1 1 0 0,4,2
0,23,12 6 4 1,4,7 5 3 1,5 1 1 0,0 1 1 0,15 8 5 1,0 3 0 1,11 4 1 -3,1 4 1 2,2 1 0 1 0,0 2 1 0 1,5,1
0,23,11 9 3,3,5 3 1,6 6 2,1 1 2,13 10 3,3 0 3,10 7 0,0 2 0,1 0 0 2 0,2 0 1 0 0,4,3
0,23,11 8 4,3,5 3 1,6 5 3,1 0 3,13 9 4,3 4 4,10 6 1,0 1 1,0 0 0 1 2,1 2 0 0 0,3,3
0,23,11 8 3 1,4,7 5 3 1,4 3 0 0,4 3 0 0,14 10 4 1,4 0 4 1,10 6 0 -3,0 1 0 2,1 1 0 0 2,2 1 1 0 0,4,2
0,23,11 7 5,3,5 3 1,6 4 4,1 4 4,13 8 5,3 3 0,10 5 2,0 0 2,1 0 0 2 0,2 0 1 0 0,4,3
0,23,11 7 4 1,4,7 5 3 1,4 2 1 0,4 2 1 0,14 9 5 1,4 4 0 1,10 5 1 -3,0 0 1 2,1 1 0 0 2,2 1 1 0 0,4,2
0,23,11 6 4 2,4,7 5 3 1,4 1 1 1,4 1 1 1,14 8 5 2,4 3 0 2,10 4 1 -2,0 4 1 3,1 0 1 1 1,1 1 0 1 1,4,1
0,23,10 8 5,3,5 3 1,5 5 4,0 0 4,12 9 5,2 4 0,9 6 2,4 1 2,1 0 1 0 1,0 1 1 0 1,4,2
0,23,10 8 4 1,4,7 5 3 1,3 3 1 0,3 3 1 0,13 10 5 1,3 0 0 1,9 6 1 -3,4 1 1 2,2 1 0 1 0,0 2 1 0 1,5,1
0,23,10 7 5 1,4,7 5 3 1,3 2 2 0,3 2 2 0,13 9 6 1,3 4 1 1,9 5 2 -3,4 0 2 2,0 2 0 1 1,1 0 2 0 1,4,1
0,23,10 7 4 2,4,7 5 3 1,3 2 1 1,3 2 1 1,13 9 5 2,3 4 0 2,9 5 1 -2,4 0 1 3,1 0 1 1 1,1 1 0 1 1,4,1
0,23,9 7 5 2,4,7 5 3 1,2 2 2 1,2 2 2 1,12 9 6 2,2 4 1 2,8 5 2 -2,3 0 2 3,0 1 2 0 1,1 0 1 2 0,4,1
0,24,24,1,1,23,3,24,4,23,3,0 0 0 0 1,0 0 0 1 0,4,4
0,24,23 1,2,3 1,20 0,0 0,24 1,4 1,22 -1,2 4,0 1 0 0 1,0 0 1 0 1,4,3
0,24,22 2,2,3 1,19 1,4 1,23 2,3 2,21 0,1 0,0 0 1 1 0,1 1 0 0 0,4,4
0,24,21 3,2,3 1,18 2,3 2,22 3,2 3,20 1,0 1,0 0 1 1 0,1 1 0 0 0,4,4
0,24,20 4,2,3 1,17 3,2 3,21 4,1 4,19 2,4 2,0 1 0 0 1,0 0 1 0 1,4,3
0,24,20 3 1,3,5 3 1,15 0 0,0 0 0,22 4 1,2 4 1,19 1 -2,4 1 3,0 1 1 0 1,0 1 0 1 1,4,2
0,24,19 5,2,3 1,16 4,1 4,20 5,0 0,18 3,3 3,2 0 0 0 0,0 0 0 2 0,5,3
0,24,19 4 1,3,5 3 1,14 1 0,4 1 0,21 5 1,1 0 1,18 2 -2,3 2 3,1 2 0 0 0,0 0 1 2 0,5,2
0,24,18 6,2,3 1,15 5,0 0,19 6,4 1,17 4,2 4,0 1 0 0 1,0 0 1 0 1,4,3
0,24,18 5 1,3,5 3 1,13 2 0,3 2 0,20 6 1,0 1 1,17 3 -2,2 3 3,1 2 0 0 0,0 0 1 2 0,5,2
0,24,18 4 2,3,5 3 1,13 1 1,3 1 1,20 5 2,0 0 2,17 2 -1,2 2 4,2 0 1 0 0,0 0 2 0 1,5,2
0,24,17 7,2,3 1,14 6,4 1,18 7,3 2,16 5,1 0,0 0 1 1 0,1 1 0 0 0,4,4
0,24,17 6 1,3,5 3 1,12 3 0,2 3 0,19 7 1,4 2 1,16 4 -2,1 4 3,0 1 1 0 1,0 1 0 1 1,4,2
0,24,17 5 2,3,5 3 1,12 2 1,2 2 1,19 6 2,4 1 2,16 3 -1,1 3 4,0 1 1 0 1,0 1 0 1 1,4,2
0,24,16 8,2,3 1,13 7,3 2,17 8,2 3,15 6,0 1,0 0 1 1 0,1 1 0 0 0,4,4
0,24,16 7 1,3,5 3 1,11 4 0,1 4 0,18 8 1,3 3 1,15 5 -2,0 0 3,0 1 0 2 0,2 0 0 1 0,4,3
0,24,16 6 2,3,5 3 1,11 3 1,1 3 1,18 7 2,3 2 2,15 4 -1,0 4 4,0 0 2 1 0,1 0 0 0 2,4,2
0,24,16 5 3,3,5 3 1,11 2 2,1 2 2,18 6 3,3 1 3,15 3 0,0 3 0,0 1 0 2 0,2 0 0 1 0,4,3
0,24,15 9,2,3 1,12 8,2 3,16 9,1 4,14 7,4 2,0 1 0 0 1,0 0 1 0 1,4,3
0,24,15 8 1,3,5 3 1,10 5 0,0 0 0,17 9 1,2 4 1,14 6 -2,4 1 3,0 1 1 0 1,0 1 0 1 1,4,2
0,24,15 7 2,3,5 3 1,10 4 1,0 4 1,17 8 2,2 3 2,14 5 -1,4 0 4,0 0 2 1 0,1 0 0 0 2,4,2
0,24,15 6 3,3,5 3 1,10 3 2,0 3 2,17 7 3,2 2 3,14 4 0,4 4 0,0 0 2 1 0,1 0 0 0 2,4,2
0,24,15 5 3 1,4,7 5 3 1,8 0 0 0,3 0 0 0,18 7 4 1,3 2 4 1,14 3 0 -3,4 3 0 2,0 1 1 1 1,1 0 1 1 1,4,1
0,24,14 10,2,3 1,11 9,1 4,15 10,0 0,13 8,3 3,2 0 0 0 0,0 0 0 2 0,5,3
0,24,14 9 1,3,5 3 1,9 6 0,4 1 0,16 10 1,1 0 1,13 7 -2,3 2 3,1 2 0 0 0,0 0 1 2 0,5,2
0,24,14 8 2,3,5 3 1,9 5 1,4 0 1,16 9 2,1 4 2,13 6 -1,3 1 4,0 1 1 0 1,0 1 0 1 1,4,2
0,24,14 7 3,3,5 3 1,9 4 2,4 4 2,16 8 3,1 3 3,13 5 0,3 0 0,0 1 0 2 0,2 0 0 1 0,4,3
0,24,14 6 4,3,5 3 1,9 3 3,4 3 3,16 7 4,1 2 4,13 4 1,3 4 1,0 1 1 0 1,0 1 0 1 1,4,2
0,24,14 6 3 1,4,7 5 3 1,7 1 0 0,2 1 0 0,17 8 4 1,2 3 4 1,13 4 0 -3,3 4 0 2,0 1 1 1 1,1 0 1 1 1,4,1
0,24,13 11,2,3 1,10 10,0 0,14 11,4 1,12 9,2 4,0 1 0 0 1,0 0 1 0 1,4,3
0,24,13 10 1,3,5 3 1,8 7 0,3 2 0,15 11 1,0 1 1,12 8 -2,2 3 3,1 2 0 0 0,0 0 1 2 0,5,2
0,24,13 9 2,3,5 3 1,8 6 1,3 1 1,15 10 2,0 0 2,12 7 -1,2 2 4,2 0 1 0 0,0 0 2 0 1,5,2
0,24,13 8 3,3,5 3 1,8 5 2,3 0 2,15 9 3,0 4 3,12 6 0,2 1 0,1 0 0 1 1,1 1 1 0 0,4,3
0,24,13 7 4,3,5 3 1,8 4 3,3 4 3,15 8 4,0 3 4,12 5 1,2 0 1,1 0 0 1 1,1 1 1 0 0,4,3
0,24,13 7 3 1,4,7 5 3 1,6 2 0 0,1 2 0 0,16 9 4 1,1 4 4 1,12 5 0 -3,2 0 0 2,0 2 0 0 2,2 0 2 0 0,4,2
0,24,13 6 4 1,4,7 5 3 1,6 1 1 0,1 1 1 0,16 8 5 1,1 3 0 1,12 4 1 -3,2 4 1 2,1 2 0 1 0,0 1 2 0 1,5,1
0,24,12 10 2,3,5 3 1,7 7 1,2 2 1,14 11 2,4 1 2,11 8 -1,1 3 4,0 1 1 0 1,0 1 0 1 1,4,2
0,24,12 9 3,3,5 3 1,7 6 2,2 1 2,14 10 3,4 0 3,11 7 0,1 2 0,1 0 0 1 1,1 1 1 0 0,4,3
0,24,12 8 4,3,5 3 1,7 5 3,2 0 3,14 9 4,4 4 4,11 6 1,1 1 1,0 0 0 0 3,0 3 0 0 0,3,3
0,24,12 8 3 1,4,7 5 3 1,5 3 0 0,0 3 0 0,15 10 4 1,0 0 4 1,11 6 0 -3,1 1 0 2,2 1 0 0 1,1 2 1 0 0,5,2
0,24,12 7 5,3,5 3 1,7 4 4,2 4 4,14 8 5,4 3 0,11 5 2,1 0 2,1 0 0 1 1,1 1 1 0 0,4,3
0,24,12 7 4 1,4,7 5 3 1,5 2 1 0,0 2 1 0,15 9 5 1,0 4 0 1,11 5 1 -3,1 0 1 2,2 1 0 0 1,1 2 1 0 0,5,2
0,24,12 6 4 2,4,7 5 3 1,5 1 1 1,0 1 1 1,15 8 5 2,0 3 0 2,11 4 1 -2,1 4 1 3,2 0 1 1 0,0 2 0 1 1,5,1
0,24,11 9 4,3,5 3 1,6 6 3,1 1 3,13 10 4,3 0 4,10 7 1,0 2 1,1 0 0 1 1,1 1 1 0 0,4,3
0,24,11 9 3 1,4,7 5 3 1,4 4 0 0,4 4 0 0,14 11 4 1,4 1 4 1,10 7 0 -3,0 2 0 2,0 2 0 0 2,2 0 2 0 0,4,2
0,24,11 8 5,3,5 3 1,6 5 4,1 0 4,13 9 5,3 4 0,10 6 2,0 1 2,1 0 0 1 1,1 1 1 0 0,4,3
0,24,11 8 4 1,4,7 5 3 1,4 3 1 0,4 3 1 0,14 10 5 1,4 0 0 1,10 6 1 -3,0 1 1 2,2 1 0 0 1,1 2 1 0 0,5,2
0,24,11 7 5 1,4,7 5 3 1,4 2 2 0,4 2 2 0,14 9 6 1,4 4 1 1,10 5 2 -3,0 0 2 2,0 2 0 0 2,2 0 2 0 0,4,2
0,24,11 7 4 2,4,7 5 3 1,4 2 1 1,4 2 1 1,14 9 5 2,4 4 0 2,10 5 1 -2,0 0 1 3,1 0 1 0 2,2 1 0 1 0,4,2
0,24,10 8 6,3,5 3 1,5 5 5,0 0 0,12 9 6,2 4 1,9 6 3,4 1 3,0 1 1 0 1,0 1 0 1 1,4,2
0,24,10 8 5 1,4,7 5 3 1,3 3 2 0,3 3 2 0,13 10 6 1,3 0 1 1,9 6 2 -3,4 1 2 2,1 2 0 1 0,0 1 2 0 1,5,1
0,24,10 8 4 2,4,7 5 3 1,3 3 1 1,3 3 1 1,13 10 5 2,3 0 0 2,9 6 1 -2,4 1 1 3,2 0 1 1 0,0 2 0 1 1,5,1
0,24,10 7 5 2,4,7 5 3 1,3 2 2 1,3 2 2 1,13 9 6 2,3 4 1 2,9 5 2 -2,4 0 2 3,0 1 1 1 1,1 0 1 1 1,4,1
0,24,9 7 5 3,4,7 5 3 1,2 2 2 2,2 2 2 2,12 9 6 3,2 4 1 3,8 5 2 -1,3 0 2 4,0 1 1 1 1,1 0 1 1 1,4,1
0,25,25,1,1,24,4,25,0,24,4,1 0 0 0 0,0 0 0 0 1,5,4
0,25,24 1,2,3 1,21 0,1 0,25 1,0 1,23 -1,3 4,1 1 0 0 0,0 0 0 1 1,5,3
0,25,23 2,2,3 1,20 1,0 1,24 2,4 2,22 0,2 0,0 0 1 0 1,1 0 1 0 0,4,4
0,25,22 3,2,3 1,19 2,4 2,23 3,3 3,21 1,1 1,0 0 0 2 0,0 2 0 0 0,4,4
0,25,21 4,2,3 1,18 3,3 3,22 4,2 4,20 2,0 2,0 0 1 0 1,1 0 1 0 0,4,4
0,25,21 3 1,3,5 3 1,16 0 0,1 0 0,23 4 1,3 4 1,20 1 -2,0 1 3,0 1 0 1 1,1 1 0 1 0,4,3
0,25,20 5,2,3 1,17 4,2 4,21 5,1 0,19 3,4 3,1 1 0 0 0,0 0 0 1 1,5,3
0,25,20 4 1,3,5 3 1,15 1 0,0 1 0,22 5 1,2 0 1,19 2 -2,4 2 3,1 1 1 0 0,0 0 1 1 1,5,2
0,25,19 6,2,3 1,16 5,1 0,20 6,0 1,18 4,3 4,1 1 0 0 0,0 0 0 1 1,5,3
0,25,19 5 1,3,5 3 1,14 2 0,4 2 0,21 6 1,1 1 1,18 3 -2,3 3 3,0 3 0 0 0,0 0 0 3 0,5,2
0,25,19 4 2,3,5 3 1,14 1 1,4 1 1,21 5 2,1 0 2,18 2 -1,3 2 4,1 1 1 0 0,0 0 1 1 1,5,2
0,25,18 7,2,3 1,15 6,0 1,19 7,4 2,17 5,2 0,0 0 1 0 1,1 0 1 0 0,4,4
0,25,18 6 1,3,5 3 1,13 3 0,3 3 0,20 7 1,0 2 1,17 4 -2,2 4 3,1 1 1 0 0,0 0 1 1 1,5,2
0,25,18 5 2,3,5 3 1,13 2 1,3 2 1,20 6 2,0 1 2,17 3 -1,2 3 4,1 1 1 0 0,0 0 1 1 1,5,2
0,25,17 8,2,3 1,14 7,4 2,18 8,3 3,16 6,1 1,0 0 0 2 0,0 2 0 0 0,4,4
0,25,17 7 1,3,5 3 1,12 4 0,2 4 0,19 8 1,4 3 1,16 5 -2,1 0 3,0 1 0 1 1,1 1 0 1 0,4,3
0,25,17 6 2,3,5 3 1,12 3 1,2 3 1,19 7 2,4 2 2,16 4 -1,1 4 4,0 0 2 0 1,0 1 0 0 2,4,2
0,25,17 5 3,3,5 3 1,12 2 2,2 2 2,19 6 3,4 1 3,16 3 0,1 3 0,0 1 0 1 1,1 1 0 1 0,4,3
0,25,16 9,2,3 1,13 8,3 3,17 9,2 4,15 7,0 2,0 0 1 0 1,1 0 1 0 0,4,4
0,25,16 8 1,3,5 3 1,11 5 0,1 0 0,18 9 1,3 4 1,15 6 -2,0 1 3,0 1 0 1 1,1 1 0 1 0,4,3
0,25,16 7 2,3,5 3 1,11 4 1,1 4 1,18 8 2,3 3 2,15 5 -1,0 0 4,0 0 1 2 0,2 0 0 0 1,4,3
0,25,16 6 3,3,5 3 1,11 3 2,1 3 2,18 7 3,3 2 3,15 4 0,0 4 0,0 0 1 2 0,2 0 0 0 1,4,3
0,25,16 5 3 1,4,7 5 3 1,9 0 0 0,4 0 0 0,19 7 4 1,4 2 4 1,15 3 0 -3,0 3 0 2,0 1 1 0 2,2 0 1 1 0,4,2
0,25,15 10,2,3 1,12 9,2 4,16 10,1 0,14 8,4 3,1 1 0 0 0,0 0 0 1 1,5,3
0,25,15 9 1,3,5 3 1,10 6 0,0 1 0,17 10 1,2 0 1,14 7 -2,4 2 3,1 1 1 0 0,0 0 1 1 1,5,2
0,25,15 8 2,3,5 3 1,10 5 1,0 0 1,17 9 2,2 4 2,14 6 -1,4 1 4,0 0 2 0 1,0 1 0 0 2,4,2
0,25,15 7 3,3,5 3 1,10 4 2,0 4 2,17 8 3,2 3 3,14 5 0,4 0 0,0 0 1 2 0,2 0 0 0 1,4,3
0,25,15 6 4,3,5 3 1,10 3 3,0 3 3,17 7 4,2 2 4,14 4 1,4 4 1,0 0 2 0 1,0 1 0 0 2,4,2
0,25,15 6 3 1,4,7 5 3 1,8 1 0 0,3 1 0 0,18 8 4 1,3 3 4 1,14 4 0 -3,4 4 0 2,0 1 0 2 1,1 0 1 0 2,4,1
0,25,14 11,2,3 1,11 10,1 0,15 11,0 1,13 9,3 4,1 1 0 0 0,0 0 0 1 1,5,3
0,25,14 10 1,3,5 3 1,9 7 0,4 2 0,16 11 1,1 1 1,13 8 -2,3 3 3,0 3 0 0 0,0 0 0 3 0,5,2
0,25,14 9 2,3,5 3 1,9 6 1,4 1 1,16 10 2,1 0 2,13 7 -1,3 2 4,1 1 1 0 0,0 0 1 1 1,5,2
0,25,14 8 3,3,5 3 1,9 5 2,4 0 2,16 9 3,1 4 3,13 6 0,3 1 0,0 1 0 1 1,1 1 0 1 0,4,3
0,25,14 7 4,3,5 3 1,9 4 3,4 4 3,16 8 4,1 3 4,13 5 1,3 0 1,0 1 0 1 1,1 1 0 1 0,4,3
0,25,14 7 3 1,4,7 5 3 1,7 2 0 0,2 2 0 0,17 9 4 1,2 4 4 1,13 5 0 -3,3 0 0 2,0 1 1 0 2,2 0 1 1 0,4,2
0,25,14 6 4 1,4,7 5 3 1,7 1 1 0,2 1 1 0,17 8 5 1,2 3 0 1,13 4 1 -3,3 4 1 2,1 1 1 1 0,0 1 1 1 1,5,1
0,25,13 11 1,3,5 3 1,8 8 0,3 3 0,15 12 1,0 2 1,12 9 -2,2 4 3,1 1 1 0 0,0 0 1 1 1,5,2
0,25,13 10 2,3,5 3 1,8 7 1,3 2 1,15 11 2,0 1 2,12 8 -1,2 3 4,1 1 1 0 0,0 0 1 1 1,5,2
0,25,13 9 3,3,5 3 1,8 6 2,3 1 2,15 10 3,0 0 3,12 7 0,2 2 0,2 0 0 1 0,1 0 2 0 0,5,3
0,25,13 8 4,3,5 3 1,8 5 3,3 0 3,15 9 4,0 4 4,12 6 1,2 1 1,1 0 0 0 2,0 2 1 0 0,4,3
0,25,13 8 3 1,4,7 5 3 1,6 3 0 0,1 3 0 0,16 10 4 1,1 0 4 1,12 6 0 -3,2 1 0 2,1 2 0 0 1,1 1 2 0 0,5,2
0,25,13 7 5,3,5 3 1,8 4 4,3 4 4,15 8 5,0 3 0,12 5 2,2 0 2,2 0 0 1 0,1 0 2 0 0,5,3
0,25,13 7 4 1,4,7 5 3 1,6 2 1 0,1 2 1 0,16 9 5 1,1 4 0 1,12 5 1 -3,2 0 1 2,1 2 0 0 1,1 1 2 0 0,5,2
0,25,13 6 4 2,4,7 5 3 1,6 1 1 1,1 1 1 1,16 8 5 2,1 3 0 2,12 4 1 -2,2 4 1 3,1 1 1 1 0,0 1 1 1 1,5,1
0,25,12 10 3,3,5 3 1,7 7 2,2 2 2,14 11 3,4 1 3,11 8 0,1 3 0,0 1 0 1 1,1 1 0 1 0,4,3
0,25,12 9 4,3,5 3 1,7 6 3,2 1 3,14 10 4,4 0 4,11 7 1,1 2 1,1 0 0 0 2,0 2 1 0 0,4,3
0,25,12 9 3 1,4,7 5 3 1,5 4 0 0,0 4 0 0,15 11 4 1,0 1 4 1,11 7 0 -3,1 2 0 2,1 2 0 0 1,1 1 2 0 0,5,2
0,25,12 8 5,3,5 3 1,7 5 4,2 0 4,14 9 5,4 4 0,11 6 2,1 1 2,1 0 0 0 2,0 2 1 0 0,4,3
0,25,12 8 4 1,4,7 5 3 1,5 3 1 0,0 3 1 0,15 10 5 1,0 0 0 1,11 6 1 -3,1 1 1 2,3 1 0 0 0,0 3 1 0 0,6,2
0,25,12 7 5 1,4,7 5 3 1,5 2 2 0,0 2 2 0,15 9 6 1,0 4 1 1,11 5 2 -3,1 0 2 2,1 2 0 0 1,1 1 2 0 0,5,2
0,25,12 7 4 2,4,7 5 3 1,5 2 1 1,0 2 1 1,15 9 5 2,0 4 0 2,11 5 1 -2,1 0 1 3,2 0 1 0 1,1 2 0 1 0,5,2
0,25,11 9 5,3,5 3 1,6 6 4,1 1 4,13 10 5,3 0 0,10 7 2,0 2 2,2 0 0 1 0,1 0 2 0 0,5,3
0,25,11 9 4 1,4,7 5 3 1,4 4 1 0,4 4 1 0,14 11 5 1,4 1 0 1,10 7 1 -3,0 2 1 2,1 2 0 0 1,1 1 2 0 0,5,2
0,25,11 8 6,3,5 3 1,6 5 5,1 0 0,13 9 6,3 4 1,10 6 3,0 1 3,0 1 0 1 1,1 1 0 1 0,4,3
0,25,11 8 5 1,4,7 5 3 1,4 3 2 0,4 3 2 0,14 10 6 1,4 0 1 1,10 6 2 -3,0 1 2 2,1 2 0 0 1,1 1 2 0 0,5,2
0,25,11 8 4 2,4,7 5 3 1,4 3 1 1,4 3 1 1,14 10 5 2,4 0 0 2,10 6 1 -2,0 1 1 3,2 0 1 0 1,1 2 0 1 0,5,2
0,25,11 7 5 2,4,7 5 3 1,4 2 2 1,4 2 2 1,14 9 6 2,4 4 1 2,10 5 2 -2,0 0 2 3,0 1 1 0 2,2 0 1 1 0,4,2
0,25,10 8 6 1,4,7 5 3 1,3 3 3 0,3 3 3 0,13 10 7 1,3 0 2 1,9 6 3 -3,4 1 3 2,1 1 1 1 0,0 1 1 1 1,5,1
0,25,10 8 5 2,4,7 5 3 1,3 3 2 1,3 3 2 1,13 10 6 2,3 0 1 2,9 6 2 -2,4 1 2 3,1 1 1 1 0,0 1 1 1 1,5,1
0,25,10 7 5 3,4,7 5 3 1,3 2 2 2,3 2 2 2,13 9 6 3,3 4 1 3,9 5 2 -1,4 0 2 4,0 1 0 2 1,1 0 1 0 2,4,1
0,25,9 7 5 3 1,5,9 7 5 3 1,0 0 0 0 0,0 0 0 0 0,13 10 7 4 1,3 0 2 4 1,8 5 2 -1 -4,3 0 2 4 1,1 1 1 1 1,1 1 1 1 1,5,0
0,26,26,1,1,25,0,26,1,25,0,0 1 0 0 0,1 0 0 0 0,5,5
0,26,25 1,2,3 1,22 0,2 0,26 1,1 1,24 -1,4 4,0 2 0 0 0,0 0 0 0 2,5,3
0,26,24 2,2,3 1,21 1,1 1,25 2,0 2,23 0,3 0,1 0 1 0 0,1 0 0 1 0,5,4
0,26,23 3,2,3 1,20 2,0 2,24 3,4 3,22 1,2 1,0 0 0 1 1,0 1 1 0 0,4,4
0,26,22 4,2,3 1,19 3,4 3,23 4,3 4,21 2,1 2,0 0 0 1 1,0 1 1 0 0,4,4
0,26,22 3 1,3,5 3 1,17 0 0,2 0 0,24 4 1,4 4 1,21 1 -2,1 1 3,0 1 0 0 2,0 2 0 1 0,4,3
0,26,21 5,2,3 1,18 4,3 4,22 5,2 0,20 3,0 3,1 0 1 0 0,1 0 0 1 0,5,4
0,26,21 4 1,3,5 3 1,16 1 0,1 1 0,23 5 1,3 0 1,20 2 -2,0 2 3,1 1 0 1 0,1 0 1 1 0,5,3
0,26,20 6,2,3 1,17 5,2 0,21 6,1 1,19 4,4 4,0 2 0 0 0,0 0 0 0 2,5,3
0,26,20 5 1,3,5 3 1,15 2 0,0 2 0,22 6 1,2 1 1,19 3 -2,4 3 3,0 2 1 0 0,0 0 0 2 1,5,2
0,26,20 4 2,3,5 3 1,15 1 1,0 1 1,22 5 2,2 0 2,19 2 -1,4 2 4,1 0 2 0 0,0 0 1 0 2,5,2
0,26,19 7,2,3 1,16 6,1 1,20 7,0 2,18 5,3 0,1 0 1 0 0,1 0 0 1 0,5,4
0,26,19 6 1,3,5 3 1,14 3 0,4 3 0,21 7 1,1 2 1,18 4 -2,3 4 3,0 2 1 0 0,0 0 0 2 1,5,2
0,26,19 5 2,3,5 3 1,14 2 1,4 2 1,21 6 2,1 1 2,18 3 -1,3 3 4,0 2 1 0 0,0 0 0 2 1,5,2
0,26,18 8,2,3 1,15 7,0 2,19 8,4 3,17 6,2 1,0 0 0 1 1,0 1 1 0 0,4,4
0,26,18 7 1,3,5 3 1,13 4 0,3 4 0,20 8 1,0 3 1,17 5 -2,2 0 3,1 1 0 1 0,1 0 1 1 0,5,3
0,26,18 6 2,3,5 3 1,13 3 1,3 3 1,20 7 2,0 2 2,17 4 -1,2 4 4,1 0 2 0 0,0 0 1 0 2,5,2
0,26,18 5 3,3,5 3 1,13 2 2,3 2 2,20 6 3,0 1 3,17 3 0,2 3 0,1 1 0 1 0,1 0 1 1 0,5,3
0,26,17 9,2,3 1,14 8,4 3,18 9,3 4,16 7,1 2,0 0 0 1 1,0 1 1 0 0,4,4
0,26,17 8 1,3,5 3 1,12 5 0,2 0 0,19 9 1,4 4 1,16 6 -2,1 1 3,0 1 0 0 2,0 2 0 1 0,4,3
0,26,17 7 2,3,5 3 1,12 4 1,2 4 1,19 8 2,4 3 2,16 5 -1,1 0 4,0 0 1 1 1,1 1 0 0 1,4,3
0,26,17 6 3,3,5 3 1,12 3 2,2 3 2,19 7 3,4 2 3,16 4 0,1 4 0,0 0 1 1 1,1 1 0 0 1,4,3
0,26,17 5 3 1,4,7 5 3 1,10 0 0 0,0 0 0 0,20 7 4 1,0 2 4 1,16 3 0 -3,1 3 0 2,1 1 1 0 1,1 1 1 1 0,5,2
0,26,16 10,2,3 1,13 9,3 4,17 10,2 0,15 8,0 3,1 0 1 0 0,1 0 0 1 0,5,4
0,26,16 9 1,3,5 3 1,11 6 0,1 1 0,18 10 1,3 0 1,15 7 -2,0 2 3,1 1 0 1 0,1 0 1 1 0,5,3
0,26,16 8 2,3,5 3 1,11 5 1,1 0 1,18 9 2,3 4 2,15 6 -1,0 1 4,0 0 1 1 1,1 1 0 0 1,4,3
0,26,16 7 3,3,5 3 1,11 4 2,1 4 2,18 8 3,3 3 3,15 5 0,0 0 0,0 0 0 3 0,3 0 0 0 0,4,4
0,26,16 6 4,3,5 3 1,11 3 3,1 3 3,18 7 4,3 2 4,15 4 1,0 4 1,0 0 1 1 1,1 1 0 0 1,4,3
0,26,16 6 3 1,4,7 5 3 1,9 1 0 0,4 1 0 0,19 8 4 1,4 3 4 1,15 4 0 -3,0 4 0 2,0 1 0 1 2,2 0 1 0 1,4,2
0,26,15 11,2,3 1,12 10,2 0,16 11,1 1,14 9,4 4,0 2 0 0 0,0 0 0 0 2,5,3
0,26,15 10 1,3,5 3 1,10 7 0,0 2 0,17 11 1,2 1 1,14 8 -2,4 3 3,0 2 1 0 0,0 0 0 2 1,5,2
0,26,15 9 2,3,5 3 1,10 6 1,0 1 1,17 10 2,2 0 2,14 7 -1,4 2 4,1 0 2 0 0,0 0 1 0 2,5,2
0,26,15 8 3,3,5 3 1,10 5 2,0 0 2,17 9 3,2 4 3,14 6 0,4 1 0,0 0 1 1 1,1 1 0 0 1,4,3
0,26,15 7 4,3,5 3 1,10 4 3,0 4 3,17 8 4,2 3 4,14 5 1,4 0 1,0 0 1 1 1,1 1 0 0 1,4,3
0,26,15 7 3 1,4,7 5 3 1,8 2 0 0,3 2 0 0,18 9 4 1,3 4 4 1,14 5 0 -3,4 0 0 2,0 1 0 1 2,2 0 1 0 1,4,2
0,26,15 6 4 1,4,7 5 3 1,8 1 1 0,3 1 1 0,18 8 5 1,3 3 0 1,14 4 1 -3,4 4 1 2,1 1 0 2 0,0 1 1 0 2,5,1
0,26,14 12,2,3 1,11 11,1 1,15 12,0 2,13 10,3 0,1 0 1 0 0,1 0 0 1 0,5,4
0,26,14 11 1,3,5 3 1,9 8 0,4 3 0,16 12 1,1 2 1,13 9 -2,3 4 3,0 2 1 0 0,0 0 0 2 1,5,2
0,26,14 10 2,3,5 3 1,9 7 1,4 2 1,16 11 2,1 1 2,13 8 -1,3 3 4,0 2 1 0 0,0 0 0 2 1,5,2
0,26,14 9 3,3,5 3 1,9 6 2,4 1 2,16 10 3,1 0 3,13 7 0,3 2 0,1 1 0 1 0,1 0 1 1 0,5,3
0,26,14 8 4,3,5 3 1,9 5 3,4 0 3,16 9 4,1 4 4,13 6 1,3 1 1,0 1 0 0 2,0 2 0 1 0,4,3
0,26,14 8 3 1,4,7 5 3 1,7 3 0 0,2 3 0 0,17 10 4 1,2 0 4 1,13 6 0 -3,3 1 0 2,1 1 1 0 1,1 1 1 1 0,5,2
0,26,14 7 5,3,5 3 1,9 4 4,4 4 4,16 8 5,1 3 0,13 5 2,3 0 2,1 1 0 1 0,1 0 1 1 0,5,3
0,26,14 7 4 1,4,7 5 3 1,7 2 1 0,2 2 1 0,17 9 5 1,2 4 0 1,13 5 1 -3,3 0 1 2,1 1 1 0 1,1 1 1 1 0,5,2
0,26,14 6 4 2,4,7 5 3 1,7 1 1 1,2 1 1 1,17 8 5 2,2 3 0 2,13 4 1 -2,3 4 1 3,1 0 2 1 0,0 1 0 2 1,5,1
0,26,13 11 2,3,5 3 1,8 8 1,3 3 1,15 12 2,0 2 2,12 9 -1,2 4 4,1 0 2 0 0,0 0 1 0 2,5,2
0,26,13 10 3,3,5 3 1,8 7 2,3 2 2,15 11 3,0 1 3,12 8 0,2 3 0,1 1 0 1 0,1 0 1 1 0,5,3
0,26,13 9 4,3,5 3 1,8 6 3,3 1 3,15 10 4,0 0 4,12 7 1,2 2 1,2 0 0 0 1,0 1 2 0 0,5,3
0,26,13 9 3 1,4,7 5 3 1,6 4 0 0,1 4 0 0,16 11 4 1,1 1 4 1,12 7 0 -3,2 2 0 2,0 3 0 0 1,1 0 3 0 0,5,2
0,26,13 8 5,3,5 3 1,8 5 4,3 0 4,15 9 5,0 4 0,12 6 2,2 1 2,2 0 0 0 1,0 1 2 0 0,5,3
0,26,13 8 4 1,4,7 5 3 1,6 3 1 0,1 3 1 0,16 10 5 1,1 0 0 1,12 6 1 -3,2 1 1 2,2 2 0 0 0,0 2 2 0 0,6,2
0,26,13 7 5 1,4,7 5 3 1,6 2 2 0,1 2 2 0,16 9 6 1,1 4 1 1,12 5 2 -3,2 0 2 2,0 3 0 0 1,1 0 3 0 0,5,2
0,26,13 7 4 2,4,7 5 3 1,6 2 1 1,1 2 1 1,16 9 5 2,1 4 0 2,12 5 1 -2,2 0 1 3,1 1 1 0 1,1 1 1 1 0,5,2
0,26,12 10 4,3,5 3 1,7 7 3,2 2 3,14 11 4,4 1 4,11 8 1,1 3 1,0 1 0 0 2,0 2 0 1 0,4,3
0,26,12 10 3 1,4,7 5 3 1,5 5 0 0,0 0 0 0,15 12 4 1,0 2 4 1,11 8 0 -3,1 3 0 2,1 1 1 0 1,1 1 1 1 0,5,2
0,26,12 9 5,3,5 3 1,7 6 4,2 1 4,14 10 5,4 0 0,11 7 2,1 2 2,2 0 0 0 1,0 1 2 0 0,5,3
0,26,12 9 4 1,4,7 5 3 1,5 4 1 0,0 4 1 0,15 11 5 1,0 1 0 1,11 7 1 -3,1 2 1 2,2 2 0 0 0,0 2 2 0 0,6,2
0,26,12 8 6,3,5 3 1,7 5 5,2 0 0,14 9 6,4 4 1,11 6 3,1 1 3,0 1 0 0 2,0 2 0 1 0,4,3
0,26,12 8 5 1,4,7 5 3 1,5 3 2 0,0 3 2 0,15 10 6 1,0 0 1 1,11 6 2 -3,1 1 2 2,2 2 0 0 0,0 2 2 0 0,6,2
0,26,12 8 4 2,4,7 5 3 1,5 3 1 1,0 3 1 1,15 10 5 2,0 0 0 2,11 6 1 -2,1 1 1 3,3 0 1 0 0,0 3 0 1 0,6,2
0,26,12 7 5 2,4,7 5 3 1,5 2 2 1,0 2 2 1,15 9 6 2,0 4 1 2,11 5 2 -2,1 0 2 3,1 1 1 0 1,1 1 1 1 0,5,2
0,26,11 9 6,3,5 3 1,6 6 5,1 1 0,13 10 6,3 0 1,10 7 3,0 2 3,1 1 0 1 0,1 0 1 1 0,5,3
0,26,11 9 5 1,4,7 5 3 1,4 4 2 0,4 4 2 0,14 11 6 1,4 1 1 1,10 7 2 -3,0 2 2 2,0 3 0 0 1,1 0 3 0 0,5,2
0,26,11 9 4 2,4,7 5 3 1,4 4 1 1,4 4 1 1,14 11 5 2,4 1 0 2,10 7 1 -2,0 2 1 3,1 1 1 0 1,1 1 1 1 0,5,2
0,26,11 8 6 1,4,7 5 3 1,4 3 3 0,4 3 3 0,14 10 7 1,4 0 2 1,10 6 3 -3,0 1 3 2,1 1 1 0 1,1 1 1 1 0,5,2
0,26,11 8 5 2,4,7 5 3 1,4 3 2 1,4 3 2 1,14 10 6 2,4 0 1 2,10 6 2 -2,0 1 2 3,1 1 1 0 1,1 1 1 1 0,5,2
0,26,11 7 5 3,4,7 5 3 1,4 2 2 2,4 2 2 2,14 9 6 3,4 4 1 3,10 5 2 -1,0 0 2 4,0 1 0 1 2,2 0 1 0 1,4,2
0,26,10 8 6 2,4,7 5 3 1,3 3 3 1,3 3 3 1,13 10 7 2,3 0 2 2,9 6 3 -2,4 1 3 3,1 0 2 1 0,0 1 0 2 1,5,1
0,26,10 8 5 3,4,7 5 3 1,3 3 2 2,3 3 2 2,13 10 6 3,3 0 1 3,9 6 2 -1,4 1 2 4,1 1 0 2 0,0 1 1 0 2,5,1
0,26,10 7 5 3 1,5,9 7 5 3 1,1 0 0 0 0,1 0 0 0 0,14 10 7 4 1,4 0 2 4 1,9 5 2 -1 -4,4 0 2 4 1,1 1 1 0 2,1 1 1 0 2,5,0
0,27,27,1,1,26,1,27,2,26,1,0 0 1 0 0,0 1 0 0 0,5,5
0,27,26 1,2,3 1,23 0,3 0,27 1,2 1,25 -1,0 4,0 1 1 0 0,1 0 0 0 1,5,4
0,27,25 2,2,3 1,22 1,2 1,26 2,1 2,24 0,4 0,0 1 1 0 0,1 0 0 0 1,5,4
0,27,24 3,2,3 1,21 2,1 2,25 3,0 3,23 1,3 1,1 0 0 1 0,0 1 0 1 0,5,4
0,27,23 4,2,3 1,20 3,0 3,24 4,4 4,22 2,2 2,0 0 0 0 2,0 0 2 0 0,4,4
0,27,23 3 1,3,5 3 1,18 0 0,3 0 0,25 4 1,0 4 1,22 1 -2,2 1 3,1 1 0 0 1,0 1 1 1 0,5,3
0,27,22 5,2,3 1,19 4,4 4,23 5,3 0,21 3,1 3,1 0 0 1 0,0 1 0 1 0,5,4
0,27,22 4 1,3,5 3 1,17 1 0,2 1 0,24 5 1,4 0 1,21 2 -2,1 2 3,1 1 0 0 1,0 1 1 1 0,5,3
0,27,21 6,2,3 1,18 5,3 0,22 6,2 1,20 4,0 4,0 1 1 0 0,1 0 0 0 1,5,4
0,27,21 5 1,3,5 3 1,16 2 0,1 2 0,23 6 1,3 1 1,20 3 -2,0 3 3,0 2 0 1 0,1 0 0 2 0,5,3
0,27,21 4 2,3,5 3 1,16 1 1,1 1 1,23 5 2,3 0 2,20 2 -1,0 2 4,1 0 1 1 0,1 0 1 0 1,5,3
0,27,20 7,2,3 1,17 6,2 1,21 7,1 2,19 5,4 0,0 1 1 0 0,1 0 0 0 1,5,4
0,27,20 6 1,3,5 3 1,15 3 0,0 3 0,22 7 1,2 2 1,19 4 -2,4 4 3,0 1 2 0 0,0 0 0 1 2,5,2
0,27,20 5 2,3,5 3 1,15 2 1,0 2 1,22 6 2,2 1 2,19 3 -1,4 3 4,0 1 2 0 0,0 0 0 1 2,5,2
0,27,19 8,2,3 1,16 7,1 2,20 8,0 3,18 6,3 1,1 0 0 1 0,0 1 0 1 0,5,4
0,27,19 7 1,3,5 3 1,14 4 0,4 4 0,21 8 1,1 3 1,18 5 -2,3 0 3,0 2 0 1 0,1 0 0 2 0,5,3
0,27,19 6 2,3,5 3 1,14 3 1,4 3 1,21 7 2,1 2 2,18 4 -1,3 4 4,0 1 2 0 0,0 0 0 1 2,5,2
0,27,19 5 3,3,5 3 1,14 2 2,4 2 2,21 6 3,1 1 3,18 3 0,3 3 0,0 2 0 1 0,1 0 0 2 0,5,3
0,27,18 9,2,3 1,15 8,0 3,19 9,4 4,17 7,2 2,0 0 0 0 2,0 0 2 0 0,4,4
0,27,18 8 1,3,5 3 1,13 5 0,3 0 0,20 9 1,0 4 1,17 6 -2,2 1 3,1 1 0 0 1,0 1 1 1 0,5,3
0,27,18 7 2,3,5 3 1,13 4 1,3 4 1,20 8 2,0 3 2,17 5 -1,2 0 4,1 0 1 1 0,1 0 1 0 1,5,3
0,27,18 6 3,3,5 3 1,13 3 2,3 3 2,20 7 3,0 2 3,17 4 0,2 4 0,1 0 1 1 0,1 0 1 0 1,5,3
0,27,18 5 3 1,4,7 5 3 1,11 0 0 0,1 0 0 0,21 7 4 1,1 2 4 1,17 3 0 -3,2 3 0 2,0 2 1 0 1,1 0 2 1 0,5,2
0,27,17 10,2,3 1,14 9,4 4,18 10,3 0,16 8,1 3,1 0 0 1 0,0 1 0 1 0,5,4
0,27,17 9 1,3,5 3 1,12 6 0,2 1 0,19 10 1,4 0 1,16 7 -2,1 2 3,1 1 0 0 1,0 1 1 1 0,5,3
0,27,17 8 2,3,5 3 1,12 5 1,2 0 1,19 9 2,4 4 2,16 6 -1,1 1 4,0 0 1 0 2,0 2 0 0 1,4,3
0,27,17 7 3,3,5 3 1,12 4 2,2 4 2,19 8 3,4 3 3,16 5 0,1 0 0,0 0 0 2 1,2 1 0 0 0,4,4
0,27,17 6 4,3,5 3 1,12 3 3,2 3 3,19 7 4,4 2 4,16 4 1,1 4 1,0 0 1 0 2,0 2 0 0 1,4,3
0,27,17 6 3 1,4,7 5 3 1,10 1 0 0,0 1 0 0,20 8 4 1,0 3 4 1,16 4 0 -3,1 4 0 2,1 1 0 1 1,1 1 1 0 1,5,2
0,27,16 11,2,3 1,13 10,3 0,17 11,2 1,15 9,0 4,0 1 1 0 0,1 0 0 0 1,5,4
0,27,16 10 1,3,5 3 1,11 7 0,1 2 0,18 11 1,3 1 1,15 8 -2,0 3 3,0 2 0 1 0,1 0 0 2 0,5,3
0,27,16 9 2,3,5 3 1,11 6 1,1 1 1,18 10 2,3 0 2,15 7 -1,0 2 4,1 0 1 1 0,1 0 1 0 1,5,3
0,27,16 8 3,3,5 3 1,11 5 2,1 0 2,18 9 3,3 4 3,15 6 0,0 1 0,0 0 0 2 1,2 1 0 0 0,4,4
0,27,16 7 4,3,5 3 1,11 4 3,1 4 3,18 8 4,3 3 4,15 5 1,0 0 1,0 0 0 2 1,2 1 0 0 0,4,4
0,27,16 7 3 1,4,7 5 3 1,9 2 0 0,4 2 0 0,19 9 4 1,4 4 4 1,15 5 0 -3,0 0 0 2,0 1 0 0 3,3 0 1 0 0,4,3
0,27,16 6 4 1,4,7 5 3 1,9 1 1 0,4 1 1 0,19 8 5 1,4 3 0 1,15 4 1 -3,0 4 1 2,1 1 0 1 1,1 1 1 0 1,5,2
0,27,15 12,2,3 1,12 11,2 1,16 12,1 2,14 10,4 0,0 1 1 0 0,1 0 0 0 1,5,4
0,27,15 11 1,3,5 3 1,10 8 0,0 3 0,17 12 1,2 2 1,14 9 -2,4 4 3,0 1 2 0 0,0 0 0 1 2,5,2
0,27,15 10 2,3,5 3 1,10 7 1,0 2 1,17 11 2,2 1 2,14 8 -1,4 3 4,0 1 2 0 0,0 0 0 1 2,5,2
0,27,15 9 3,3,5 3 1,10 6 2,0 1 2,17 10 3,2 0 3,14 7 0,4 2 0,1 0 1 1 0,1 0 1 0 1,5,3
0,27,15 8 4,3,5 3 1,10 5 3,0 0 3,17 9 4,2 4 4,14 6 1,4 1 1,0 0 1 0 2,0 2 0 0 1,4,3
0,27,15 8 3 1,4,7 5 3 1,8 3 0 0,3 3 0 0,18 10 4 1,3 0 4 1,14 6 0 -3,4 1 0 2,1 1 0 1 1,1 1 1 0 1,5,2
0,27,15 7 5,3,5 3 1,10 4 4,0 4 4,17 8 5,2 3 0,14 5 2,4 0 2,1 0 1 1 0,1 0 1 0 1,5,3
0,27,15 7 4 1,4,7 5 3 1,8 2 1 0,3 2 1 0,18 9 5 1,3 4 0 1,14 5 1 -3,4 0 1 2,1 1 0 1 1,1 1 1 0 1,5,2
0,27,15 6 4 2,4,7 5 3 1,8 1 1 1,3 1 1 1,18 8 5 2,3 3 0 2,14 4 1 -2,4 4 1 3,1 0 1 2 0,0 1 0 1 2,5,1
0,27,14 12 1,3,5 3 1,9 9 0,4 4 0,16 13 1,1 3 1,13 10 -2,3 0 3,0 2 0 1 0,1 0 0 2 0,5,3
0,27,14 11 2,3,5 3 1,9 8 1,4 3 1,16 12 2,1 2 2,13 9 -1,3 4 4,0 1 2 0 0,0 0 0 1 2,5,2
0,27,14 10 3,3,5 3 1,9 7 2,4 2 2,16 11 3,1 1 3,13 8 0,3 3 0,0 2 0 1 0,1 0 0 2 0,5,3
0,27,14 9 4,3,5 3 1,9 6 3,4 1 3,16 10 4,1 0 4,13 7 1,3 2 1,1 1 0 0 1,0 1 1 1 0,5,3
0,27,14 9 3 1,4,7 5 3 1,7 4 0 0,2 4 0 0,17 11 4 1,2 1 4 1,13 7 0 -3,3 2 0 2,0 2 1 0 1,1 0 2 1 0,5,2
0,27,14 8 5,3,5 3 1,9 5 4,4 0 4,16 9 5,1 4 0,13 6 2,3 1 2,1 1 0 0 1,0 1 1 1 0,5,3
0,27,14 8 4 1,4,7 5 3 1,7 3 1 0,2 3 1 0,17 10 5 1,2 0 0 1,13 6 1 -3,3 1 1 2,2 1 1 0 0,0 2 1 1 0,6,2
0,27,14 7 5 1,4,7 5 3 1,7 2 2 0,2 2 2 0,17 9 6 1,2 4 1 1,13 5 2 -3,3 0 2 2,0 2 1 0 1,1 0 2 1 0,5,2
0,27,14 7 4 2,4,7 5 3 1,7 2 1 1,2 2 1 1,17 9 5 2,2 4 0 2,13 5 1 -2,3 0 1 3,1 0 2 0 1,1 1 0 2 0,5,2
0,27,13 11 3,3,5 3 1,8 8 2,3 3 2,15 12 3,0 2 3,12 9 0,2 4 0,1 0 1 1 0,1 0 1 0 1,5,3
0,27,13 10 4,3,5 3 1,8 7 3,3 2 3,15 11 4,0 1 4,12 8 1,2 3 1,1 1 0 0 1,0 1 1 1 0,5,3
0,27,13 10 3 1,4,7 5 3 1,6 5 0 0,1 0 0 0,16 12 4 1,1 2 4 1,12 8 0 -3,2 3 0 2,0 2 1 0 1,1 0 2 1 0,5,2
0,27,13 9 5,3,5 3 1,8 6 4,3 1 4,15 10 5,0 0 0,12 7 2,2 2 2,3 0 0 0 0,0 0 3 0 0,6,3
0,27,13 9 4 1,4,7 5 3 1,6 4 1 0,1 4 1 0,16 11 5 1,1 1 0 1,12 7 1 -3,2 2 1 2,1 3 0 0 0,0 1 3 0 0,6,2
0,27,13 8 6,3,5 3 1,8 5 5,3 0 0,15 9 6,0 4 1,12 6 3,2 1 3,1 1 0 0 1,0 1 1 1 0,5,3
0,27,13 8 5 1,4,7 5 3 1,6 3 2 0,1 3 2 0,16 10 6 1,1 0 1 1,12 6 2 -3,2 1 2 2,1 3 0 0 0,0 1 3 0 0,6,2
0,27,13 8 4 2,4,7 5 3 1,6 3 1 1,1 3 1 1,16 10 5 2,1 0 0 2,12 6 1 -2,2 1 1 3,2 1 1 0 0,0 2 1 1 0,6,2
0,27,13 7 5 2,4,7 5 3 1,6 2 2 1,1 2 2 1,16 9 6 2,1 4 1 2,12 5 2 -2,2 0 2 3,0 2 1 0 1,1 0 2 1 0,5,2
0,27,12 10 5,3,5 3 1,7 7 4,2 2 4,14 11 5,4 1 0,11 8 2,1 3 2,1 1 0 0 1,0 1 1 1 0,5,3
0,27,12 10 4 1,4,7 5 3 1,5 5 1 0,0 0 1 0,15 12 5 1,0 2 0 1,11 8 1 -3,1 3 1 2,2 1 1 0 0,0 2 1 1 0,6,2
0,27,12 9 6,3,5 3 1,7 6 5,2 1 0,14 10 6,4 0 1,11 7 3,1 2 3,1 1 0 0 1,0 1 1 1 0,5,3
0,27,12 9 5 1,4,7 5 3 1,5 4 2 0,0 4 2 0,15 11 6 1,0 1 1 1,11 7 2 -3,1 2 2 2,1 3 0 0 0,0 1 3 0 0,6,2
0,27,12 9 4 2,4,7 5 3 1,5 4 1 1,0 4 1 1,15 11 5 2,0 1 0 2,11 7 1 -2,1 2 1 3,2 1 1 0 0,0 2 1 1 0,6,2
0,27,12 8 6 1,4,7 5 3 1,5 3 3 0,0 3 3 0,15 10 7 1,0 0 2 1,11 6 3 -3,1 1 3 2,2 1 1 0 0,0 2 1 1 0,6,2
0,27,12 8 5 2,4,7 5 3 1,5 3 2 1,0 3 2 1,15 10 6 2,0 0 1 2,11 6 2 -2,1 1 2 3,2 1 1 0 0,0 2 1 1 0,6,2
0,27,12 7 5 3,4,7 5 3 1,5 2 2 2,0 2 2 2,15 9 6 3,0 4 1 3,11 5 2 -1,1 0 2 4,1 1 0 1 1,1 1 1 0 1,5,2
0,27,11 9 7,3,5 3 1,6 6 6,1 1 1,13 10 7,3 0 2,10 7 4,0 2 4,1 0 1 1 0,1 0 1 0 1,5,3
0,27,11 9 6 1,4,7 5 3 1,4 4 3 0,4 4 3 0,14 11 7 1,4 1 2 1,10 7 3 -3,0 2 3 2,0 2 1 0 1,1 0 2 1 0,5,2
0,27,11 9 5 2,4,7 5 3 1,4 4 2 1,4 4 2 1,14 11 6 2,4 1 1 2,10 7 2 -2,0 2 2 3,0 2 1 0 1,1 0 2 1 0,5,2
0,27,11 8 6 2,4,7 5 3 1,4 3 3 1,4 3 3 1,14 10 7 2,4 0 2 2,10 6 3 -2,0 1 3 3,1 0 2 0 1,1 1 0 2 0,5,2
0,27,11 8 5 3,4,7 5 3 1,4 3 2 2,4 3 2 2,14 10 6 3,4 0 1 3,10 6 2 -1,0 1 2 4,1 1 0 1 1,1 1 1 0 1,5,2
0,27,11 7 5 3 1,5,9 7 5 3 1,2 0 0 0 0,2 0 0 0 0,15 10 7 4 1,0 0 2 4 1,10 5 2 -1 -4,0 0 2 4 1,2 1 1 0 1,2 1 1 0 1,6,1
0,27,10 8 6 3,4,7 5 3 1,3 3 3 2,3 3 3 2,13 10 7 3,3 0 2 3,9 6 3 -1,4 1 3 4,1 0 1 2 0,0 1 0 1 2,5,1
0,27,10 8 5 3 1,5,9 7 5 3 1,1 1 0 0 0,1 1 0 0 0,14 11 7 4 1,4 1 2 4 1,9 6 2 -1 -4,4 1 2 4 1,0 2 1 0 2,0 2 1 0 2,5,0
0,28,28,1,1,27,2,28,3,27,2,0 0 0 1 0,0 0 1 0 0,5,5
0,28,27 1,2,3 1,24 0,4 0,28 1,3 1,26 -1,1 4,0 1 0 1 0,0 1 0 0 1,5,4
0,28,26 2,2,3 1,23 1,3 1,27 2,2 2,25 0,0 0,0 0 2 0 0,2 0 0 0 0,5,5
0,28,25 3,2,3 1,22 2,2 2,26 3,1 3,24 1,4 1,0 1 0 1 0,0 1 0 0 1,5,4
0,28,24 4,2,3 1,21 3,1 3,25 4,0 4,23 2,3 2,1 0 0 0 1,0 0 1 1 0,5,4
0,28,24 3 1,3,5 3 1,19 0 0,4 0 0,26 4 1,1 4 1,23 1 -2,3 1 3,0 2 0 0 1,0 1 0 2 0,5,3
0,28,23 5,2,3 1,20 4,0 4,24 5,4 0,22 3,2 3,1 0 0 0 1,0 0 1 1 0,5,4
0,28,23 4 1,3,5 3 1,18 1 0,3 1 0,25 5 1,0 0 1,22 2 -2,2 2 3,2 1 0 0 0,0 0 2 1 0,6,3
0,28,22 6,2,3 1,19 5,4 0,23 6,3 1,21 4,1 4,0 1 0 1 0,0 1 0 0 1,5,4
0,28,22 5 1,3,5 3 1,17 2 0,2 2 0,24 6 1,4 1 1,21 3 -2,1 3 3,0 2 0 0 1,0 1 0 2 0,5,3
0,28,22 4 2,3,5 3 1,17 1 1,2 1 1,24 5 2,4 0 2,21 2 -1,1 2 4,1 0 1 0 1,0 1 1 0 1,5,3
0,28,21 7,2,3 1,18 6,3 1,22 7,2 2,20 5,0 0,0 0 2 0 0,2 0 0 0 0,5,5
0,28,21 6 1,3,5 3 1,16 3 0,1 3 0,23 7 1,3 2 1,20 4 -2,0 4 3,0 1 1 1 0,1 0 0 1 1,5,3
0,28,21 5 2,3,5 3 1,16 2 1,1 2 1,23 6 2,3 1 2,20 3 -1,0 3 4,0 1 1 1 0,1 0 0 1 1,5,3
0,28,20 8,2,3 1,17 7,2 2,21 8,1 3,19 6,4 1,0 1 0 1 0,0 1 0 0 1,5,4
0,28,20 7 1,3,5 3 1,15 4 0,0 4 0,22 8 1,2 3 1,19 5 -2,4 0 3,0 1 1 1 0,1 0 0 1 1,5,3
0,28,20 6 2,3,5 3 1,15 3 1,0 3 1,22 7 2,2 2 2,19 4 -1,4 4 4,0 0 3 0 0,0 0 0 0 3,5,2
0,28,20 5 3,3,5 3 1,15 2 2,0 2 2,22 6 3,2 1 3,19 3 0,4 3 0,0 1 1 1 0,1 0 0 1 1,5,3
0,28,19 9,2,3 1,16 8,1 3,20 9,0 4,18 7,3 2,1 0 0 0 1,0 0 1 1 0,5,4
0,28,19 8 1,3,5 3 1,14 5 0,4 0 0,21 9 1,1 4 1,18 6 -2,3 1 3,0 2 0 0 1,0 1 0 2 0,5,3
0,28,19 7 2,3,5 3 1,14 4 1,4 4 1,21 8 2,1 3 2,18 5 -1,3 0 4,0 1 1 1 0,1 0 0 1 1,5,3
0,28,19 6 3,3,5 3 1,14 3 2,4 3 2,21 7 3,1 2 3,18 4 0,3 4 0,0 1 1 1 0,1 0 0 1 1,5,3
0,28,19 5 3 1,4,7 5 3 1,12 0 0 0,2 0 0 0,22 7 4 1,2 2 4 1,18 3 0 -3,3 3 0 2,0 1 2 0 1,1 0 1 2 0,5,2
0,28,18 10,2,3 1,15 9,0 4,19 10,4 0,17 8,2 3,1 0 0 0 1,0 0 1 1 0,5,4
0,28,18 9 1,3,5 3 1,13 6 0,3 1 0,20 10 1,0 0 1,17 7 -2,2 2 3,2 1 0 0 0,0 0 2 1 0,6,3
0,28,18 8 2,3,5 3 1,13 5 1,3 0 1,20 9 2,0 4 2,17 6 -1,2 1 4,1 0 1 0 1,0 1 1 0 1,5,3
0,28,18 7 3,3,5 3 1,13 4 2,3 4 2,20 8 3,0 3 3,17 5 0,2 0 0,1 0 0 2 0,2 0 1 0 0,5,4
0,28,18 6 4,3,5 3 1,13 3 3,3 3 3,20 7 4,0 2 4,17 4 1,2 4 1,1 0 1 0 1,0 1 1 0 1,5,3
0,28,18 6 3 1,4,7 5 3 1,11 1 0 0,1 1 0 0,21 8 4 1,1 3 4 1,17 4 0 -3,2 4 0 2,0 2 0 1 1,1 0 2 0 1,5,2
0,28,17 11,2,3 1,14 10,4 0,18 11,3 1,16 9,1 4,0 1 0 1 0,0 1 0 0 1,5,4
0,28,17 10 1,3,5 3 1,12 7 0,2 2 0,19 11 1,4 1 1,16 8 -2,1 3 3,0 2 0 0 1,0 1 0 2 0,5,3
0,28,17 9 2,3,5 3 1,12 6 1,2 1 1,19 10 2,4 0 2,16 7 -1,1 2 4,1 0 1 0 1,0 1 1 0 1,5,3
0,28,17 8 3,3,5 3 1,12 5 2,2 0 2,19 9 3,4 4 3,16 6 0,1 1 0,0 0 0 1 2,1 2 0 0 0,4,4
0,28,17 7 4,3,5 3 1,12 4 3,2 4 3,19 8 4,4 3 4,16 5 1,1 0 1,0 0 0 1 2,1 2 0 0 0,4,4
0,28,17 7 3 1,4,7 5 3 1,10 2 0 0,0 2 0 0,20 9 4 1,0 4 4 1,16 5 0 -3,1 0 0 2,1 1 0 0 2,2 1 1 0 0,5,3
0,28,17 6 4 1,4,7 5 3 1,10 1 1 0,0 1 1 0,20 8 5 1,0 3 0 1,16 4 1 -3,1 4 1 2,2 1 0 1 0,0 2 1 0 1,6,2
0,28,16 12,2,3 1,13 11,3 1,17 12,2 2,15 10,0 0,0 0 2 0 0,2 0 0 0 0,5,5
0,28,16 11 1,3,5 3 1,11 8 0,1 3 0,18 12 1,3 2 1,15 9 -2,0 4 3,0 1 1 1 0,1 0 0 1 1,5,3
0,28,16 10 2,3,5 3 1,11 7 1,1 2 1,18 11 2,3 1 2,15 8 -1,0 3 4,0 1 1 1 0,1 0 0 1 1,5,3
0,28,16 9 3,3,5 3 1,11 6 2,1 1 2,18 10 3,3 0 3,15 7 0,0 2 0,1 0 0 2 0,2 0 1 0 0,5,4
0,28,16 8 4,3,5 3 1,11 5 3,1 0 3,18 9 4,3 4 4,15 6 1,0 1 1,0 0 0 1 2,1 2 0 0 0,4,4
0,28,16 8 3 1,4,7 5 3 1,9 3 0 0,4 3 0 0,19 10 4 1,4 0 4 1,15 6 0 -3,0 1 0 2,1 1 0 0 2,2 1 1 0 0,5,3
0,28,16 7 5,3,5 3 1,11 4 4,1 4 4,18 8 5,3 3 0,15 5 2,0 0 2,1 0 0 2 0,2 0 1 0 0,5,4
0,28,16 7 4 1,4,7 5 3 1,9 2 1 0,4 2 1 0,19 9 5 1,4 4 0 1,15 5 1 -3,0 0 1 2,1 1 0 0 2,2 1 1 0 0,5,3
0,28,16 6 4 2,4,7 5 3 1,9 1 1 1,4 1 1 1,19 8 5 2,4 3 0 2,15 4 1 -2,0 4 1 3,1 0 1 1 1,1 1 0 1 1,5,2
0,28,15 13,2,3 1,12 12,2 2,16 13,1 3,14 11,4 1,0 1 0 1 0,0 1 0 0 1,5,4
0,28,15 12 1,3,5 3 1,10 9 0,0 4 0,17 13 1,2 3 1,14 10 -2,4 0 3,0 1 1 1 0,1 0 0 1 1,5,3
0,28,15 11 2,3,5 3 1,10 8 1,0 3 1,17 12 2,2 2 2,14 9 -1,4 4 4,0 0 3 0 0,0 0 0 0 3,5,2
0,28,15 10 3,3,5 3 1,10 7 2,0 2 2,17 11 3,2 1 3,14 8 0,4 3 0,0 1 1 1 0,1 0 0 1 1,5,3
0,28,15 9 4,3,5 3 1,10 6 3,0 1 3,17 10 4,2 0 4,14 7 1,4 2 1,1 0 1 0 1,0 1 1 0 1,5,3
0,28,15 9 3 1,4,7 5 3 1,8 4 0 0,3 4 0 0,18 11 4 1,3 1 4 1,14 7 0 -3,4 2 0 2,0 2 0 1 1,1 0 2 0 1,5,2
0,28,15 8 5,3,5 3 1,10 5 4,0 0 4,17 9 5,2 4 0,14 6 2,4 1 2,1 0 1 0 1,0 1 1 0 1,5,3
0,28,15 8 4 1,4,7 5 3 1,8 3 1 0,3 3 1 0,18 10 5 1,3 0 0 1,14 6 1 -3,4 1 1 2,2 1 0 1 0,0 2 1 0 1,6,2
0,28,15 7 5 1,4,7 5 3 1,8 2 2 0,3 2 2 0,18 9 6 1,3 4 1 1,14 5 2 -3,4 0 2 2,0 2 0 1 1,1 0 2 0 1,5,2
0,28,15 7 4 2,4,7 5 3 1,8 2 1 1,3 2 1 1,18 9 5 2,3 4 0 2,14 5 1 -2,4 0 1 3,1 0 1 1 1,1 1 0 1 1,5,2
0,28,14 12 2,3,5 3 1,9 9 1,4 4 1,16 13 2,1 3 2,13 10 -1,3 0 4,0 1 1 1 0,1 0 0 1 1,5,3
0,28,14 11 3,3,5 3 1,9 8 2,4 3 2,16 12 3,1 2 3,13 9 0,3 4 0,0 1 1 1 0,1 0 0 1 1,5,3
0,28,14 10 4,3,5 3 1,9 7 3,4 2 3,16 11 4,1 1 4,13 8 1,3 3 1,0 2 0 0 1,0 1 0 2 0,5,3
0,28,14 10 3 1,4,7 5 3 1,7 5 0 0,2 0 0 0,17 12 4 1,2 2 4 1,13 8 0 -3,3 3 0 2,0 1 2 0 1,1 0 1 2 0,5,2
0,28,14 9 5,3,5 3 1,9 6 4,4 1 4,16 10 5,1 0 0,13 7 2,3 2 2,2 1 0 0 0,0 0 2 1 0,6,3
0,28,14 9 4 1,4,7 5 3 1,7 4 1 0,2 4 1 0,17 11 5 1,2 1 0 1,13 7 1 -3,3 2 1 2,1 2 1 0 0,0 1 2 1 0,6,2
0,28,14 8 6,3,5 3 1,9 5 5,4 0 0,16 9 6,1 4 1,13 6 3,3 1 3,0 2 0 0 1,0 1 0 2 0,5,3
0,28,14 8 5 1,4,7 5 3 1,7 3 2 0,2 3 2 0,17 10 6 1,2 0 1 1,13 6 2 -3,3 1 2 2,1 2 1 0 0,0 1 2 1 0,6,2
0,28,14 8 4 2,4,7 5 3 1,7 3 1 1,2 3 1 1,17 10 5 2,2 0 0 2,13 6 1 -2,3 1 1 3,2 0 2 0 0,0 2 0 2 0,6,2
0,28,14 7 5 2,4,7 5 3 1,7 2 2 1,2 2 2 1,17 9 6 2,2 4 1 2,13 5 2 -2,3 0 2 3,0 1 2 0 1,1 0 1 2 0,5,2
0,28,13 11 4,3,5 3 1,8 8 3,3 3 3,15 12 4,0 2 4,12 9 1,2 4 1,1 0 1 0 1,0 1 1 0 1,5,3
0,28,13 11 3 1,4,7 5 3 1,6 6 0 0,1 1 0 0,16 13 4 1,1 3 4 1,12 9 0 -3,2 4 0 2,0 2 0 1 1,1 0 2 0 1,5,2
0,28,13 10 5,3,5 3 1,8 7 4,3 2 4,15 11 5,0 1 0,12 8 2,2 3 2,2 1 0 0 0,0 0 2 1 0,6,3
0,28,13 10 4 1,4,7 5 3 1,6 5 1 0,1 0 1 0,16 12 5 1,1 2 0 1,12 8 1 -3,2 3 1 2,1 2 1 0 0,0 1 2 1 0,6,2
0,28,13 9 6,3,5 3 1,8 6 5,3 1 0,15 10 6,0 0 1,12 7 3,2 2 3,2 1 0 0 0,0 0 2 1 0,6,3
0,28,13 9 5 1,4,7 5 3 1,6 4 2 0,1 4 2 0,16 11 6 1,1 1 1 1,12 7 2 -3,2 2 2 2,0 4 0 0 0,0 0 4 0 0,6,2
0,28,13 9 4 2,4,7 5 3 1,6 4 1 1,1 4 1 1,16 11 5 2,1 1 0 2,12 7 1 -2,2 2 1 3,1 2 1 0 0,0 1 2 1 0,6,2
0,28,13 8 6 1,4,7 5 3 1,6 3 3 0,1 3 3 0,16 10 7 1,1 0 2 1,12 6 3 -3,2 1 3 2,1 2 1 0 0,0 1 2 1 0,6,2
0,28,13 8 5 2,4,7 5 3 1,6 3 2 1,1 3 2 1,16 10 6 2,1 0 1 2,12 6 2 -2,2 1 2 3,1 2 1 0 0,0 1 2 1 0,6,2
0,28,13 7 5 3,4,7 5 3 1,6 2 2 2,1 2 2 2,16 9 6 3,1 4 1 3,12 5 2 -1,2 0 2 4,0 2 0 1 1,1 0 2 0 1,5,2
0,28,12 10 6,3,5 3 1,7 7 5,2 2 0,14 11 6,4 1 1,11 8 3,1 3 3,0 2 0 0 1,0 1 0 2 0,5,3
0,28,12 10 5 1,4,7 5 3 1,5 5 2 0,0 0 2 0,15 12 6 1,0 2 1 1,11 8 2 -3,1 3 2 2,1 2 1 0 0,0 1 2 1 0,6,2
0,28,12 10 4 2,4,7 5 3 1,5 5 1 1,0 0 1 1,15 12 5 2,0 2 0 2,11 8 1 -2,1 3 1 3,2 0 2 0 0,0 2 0 2 0,6,2
0,28,12 9 7,3,5 3 1,7 6 6,2 1 1,14 10 7,4 0 2,11 7 4,1 2 4,1 0 1 0 1,0 1 1 0 1,5,3
0,28,12 9 6 1,4,7 5 3 1,5 4 3 0,0 4 3 0,15 11 7 1,0 1 2 1,11 7 3 -3,1 2 3 2,1 2 1 0 0,0 1 2 1 0,6,2
0,28,12 9 5 2,4,7 5 3 1,5 4 2 1,0 4 2 1,15 11 6 2,0 1 1 2,11 7 2 -2,1 2 2 3,1 2 1 0 0,0 1 2 1 0,6,2
0,28,12 8 6 2,4,7 5 3 1,5 3 3 1,0 3 3 1,15 10 7 2,0 0 2 2,11 6 3 -2,1 1 3 3,2 0 2 0 0,0 2 0 2 0,6,2
0,28,12 8 5 3,4,7 5 3 1,5 3 2 2,0 3 2 2,15 10 6 3,0 0 1 3,11 6 2 -1,1 1 2 4,2 1 0 1 0,0 2 1 0 1,6,2
0,28,12 7 5 3 1,5,9 7 5 3 1,3 0 0 0 0,3 0 0 0 0,16 10 7 4 1,1 0 2 4 1,11 5 2 -1 -4,1 0 2 4 1,1 2 1 0 1,1 2 1 0 1,6,1
0,28,11 9 7 1,4,7 5 3 1,4 4 4 0,4 4 4 0,14 11 8 1,4 1 3 1,10 7 4 -3,0 2 4 2,0 2 0 1 1,1 0 2 0 1,5,2
0,28,11 9 6 2,4,7 5 3 1,4 4 3 1,4 4 3 1,14 11 7 2,4 1 2 2,10 7 3 -2,0 2 3 3,0 1 2 0 1,1 0 1 2 0,5,2
0,28,11 9 5 3,4,7 5 3 1,4 4 2 2,4 4 2 2,14 11 6 3,4 1 1 3,10 7 2 -1,0 2 2 4,0 2 0 1 1,1 0 2 0 1,5,2
0,28,11 8 6 3,4,7 5 3 1,4 3 3 2,4 3 3 2,14 10 7 3,4 0 2 3,10 6 3 -1,0 1 3 4,1 0 1 1 1,1 1 0 1 1,5,2
0,28,11 8 5 3 1,5,9 7 5 3 1,2 1 0 0 0,2 1 0 0 0,15 11 7 4 1,0 1 2 4 1,10 6 2 -1 -4,0 1 2 4 1,1 2 1 0 1,1 2 1 0 1,6,1
0,28,10 8 6 4,4,7 5 3 1,3 3 3 3,3 3 3 3,13 10 7 4,3 0 2 4,9 6 3 0,4 1 3 0,1 0 1 1 1,1 1 0 1 1,5,2
0,28,10 8 6 3 1,5,9 7 5 3 1,1 1 1 0 0,1 1 1 0 0,14 11 8 4 1,4 1 3 4 1,9 6 3 -1 -4,4 1 3 4 1,0 2 0 1 2,0 2 0 1 2,5,0
1,0,,0,,,,,,,,0 0 0 0 0,0 0 0 0 0,0,0
1,2,2,1,2,0,0,2,2,2,2,0 0 1 0 0,0 0 1 0 0,0,0
1,3,3,1,2,1,1,3,3,3,3,0 0 0 1 0,0 0 0 1 0,0,0
1,4,4,1,2,2,2,4,4,4,4,0 0 0 0 1,0 0 0 0 1,0,0
1,5,5,1,2,3,3,5,0,5,0,1 0 0 0 0,1 0 0 0 0,1,1
1,6,6,1,2,4,4,6,1,6,1,0 1 0 0 0,0 1 0 0 0,1,1
1,6,4 2,2,4 2,0 0,0 0,5 2,0 2,4 1,4 1,1 0 1 0 0,0 1 0 0 1,1,0
1,7,7,1,2,5,0,7,2,7,2,0 0 1 0 0,0 0 1 0 0,1,1
1,7,5 2,2,4 2,1 0,1 0,6 2,1 2,5 1,0 1,0 1 1 0 0,1 1 0 0 0,1,1
1,8,8,1,2,6,1,8,3,8,3,0 0 0 1 0,0 0 0 1 0,1,1
1,8,6 2,2,4 2,2 0,2 0,7 2,2 2,6 1,1 1,0 0 2 0 0,0 2 0 0 0,1,1
1,8,5 3,2,4 2,1 1,1 1,6 3,1 3,5 2,0 2,0 1 0 1 0,1 0 1 0 0,1,1
1,9,9,1,2,7,2,9,4,9,4,0 0 0 0 1,0 0 0 0 1,1,1
1,9,7 2,2,4 2,3 0,3 0,8 2,3 2,7 1,2 1,0 0 1 1 0,0 1 1 0 0,1,1
1,9,6 3,2,4 2,2 1,2 1,7 3,2 3,6 2,1 2,0 0 1 1 0,0 1 1 0 0,1,1
1,10,10,1,2,8,3,10,0,10,0,1 0 0 0 0,1 0 0 0 0,2,2
1,10,8 2,2,4 2,4 0,4 0,9 2,4 2,8 1,3 1,0 0 1 0 1,0 1 0 1 0,1,1
1,10,7 3,2,4 2,3 1,3 1,8 3,3 3,7 2,2 2,0 0 0 2 0,0 0 2 0 0,1,1
1,10,6 4,2,4 2,2 2,2 2,7 4,2 4,6 3,1 3,0 0 1 0 1,0 1 0 1 0,1,1
1,11,11,1,2,9,4,11,1,11,1,0 1 0 0 0,0 1 0 0 0,2,2
1,11,9 2,2,4 2,5 0,0 0,10 2,0 2,9 1,4 1,1 0 1 0 0,0 1 0 0 1,2,1
1,11,8 3,2,4 2,4 1,4 1,9 3,4 3,8 2,3 2,0 0 0 1 1,0 0 1 1 0,1,1
1,11,7 4,2,4 2,3 2,3 2,8 4,3 4,7 3,2 3,0 0 0 1 1,0 0 1 1 0,1,1
1,12,12,1,2,10,0,12,2,12,2,0 0 1 0 0,0 0 1 0 0,2,2
1,12,10 2,2,4 2,6 0,1 0,11 2,1 2,10 1,0 1,0 1 1 0 0,1 1 0 0 0,2,2
1,12,9 3,2,4 2,5 1,0 1,10 3,0 3,9 2,4 2,1 0 0 1 0,0 0 1 0 1,2,1
1,12,8 4,2,4 2,4 2,4 2,9 4,4 4,8 3,3 3,0 0 0 0 2,0 0 0 2 0,1,1
1,12,7 5,2,4 2,3 3,3 3,8 5,3 0,7 4,2 4,1 0 0 1 0,0 0 1 0 1,2,1
1,12,6 4 2,3,6 4 2,0 0 0,0 0 0,8 5 2,3 0 2,6 3 0,1 3 0,1 0 1 1 0,1 1 0 1 0,2,1
1,13,13,1,2,11,1,13,3,13,3,0 0 0 1 0,0 0 0 1 0,2,2
1,13,11 2,2,4 2,7 0,2 0,12 2,2 2,11 1,1 1,0 0 2 0 0,0 2 0 0 0,2,2
1,13,10 3,2,4 2,6 1,1 1,11 3,1 3,10 2,0 2,0 1 0 1 0,1 0 1 0 0,2,2
1,13,9 4,2,4 2,5 2,0 2,10 4,0 4,9 3,4 3,1 0 0 0 1,0 0 0 1 1,2,1
1,13,8 5,2,4 2,4 3,4 3,9 5,4 0,8 4,3 4,1 0 0 0 1,0 0 0 1 1,2,1
1,13,7 4 2,3,6 4 2,1 0 0,1 0 0,9 5 2,4 0 2,7 3 0,2 3 0,1 0 1 0 1,1 0 1 1 0,2,1
1,14,14,1,2,12,2,14,4,14,4,0 0 0 0 1,0 0 0 0 1,2,2
1,14,12 2,2,4 2,8 0,3 0,13 2,3 2,12 1,2 1,0 0 1 1 0,0 1 1 0 0,2,2
1,14,11 3,2,4 2,7 1,2 1,12 3,2 3,11 2,1 2,0 0 1 1 0,0 1 1 0 0,2,2
1,14,10 4,2,4 2,6 2,1 2,11 4,1 4,10 3,0 3,0 1 0 0 1,1 0 0 1 0,2,2
1,14,9 5,2,4 2,5 3,0 3,10 5,0 0,9 4,4 4,2 0 0 0 0,0 0 0 0 2,3,1
1,14,8 6,2,4 2,4 4,4 4,9 6,4 1,8 5,3 0,0 1 0 0 1,1 0 0 1 0,2,2
1,14,8 4 2,3,6 4 2,2 0 0,2 0 0,10 5 2,0 0 2,8 3 0,3 3 0,2 0 1 0 0,1 0 0 2 0,3,1
1,14,7 5 2,3,6 4 2,1 1 0,1 1 0,9 6 2,4 1 2,7 4 0,2 4 0,0 1 1 0 1,1 0 1 0 1,2,1
1,15,15,1,2,13,3,15,0,15,0,1 0 0 0 0,1 0 0 0 0,3,3
1,15,13 2,2,4 2,9 0,4 0,14 2,4 2,13 1,3 1,0 0 1 0 1,0 1 0 1 0,2,2
1,15,12 3,2,4 2,8 1,3 1,13 3,3 3,12 2,2 2,0 0 0 2 0,0 0 2 0 0,2,2
1,15,11 4,2,4 2,7 2,2 2,12 4,2 4,11 3,1 3,0 0 1 0 1,0 1 0 1 0,2,2
1,15,10 5,2,4 2,6 3,1 3,11 5,1 0,10 4,0 4,1 1 0 0 0,1 0 0 0 1,3,2
1,15,9 6,2,4 2,5 4,0 4,10 6,0 1,9 5,4 0,1 1 0 0 0,1 0 0 0 1,3,2
1,15,9 4 2,3,6 4 2,3 0 0,3 0 0,11 5 2,1 0 2,9 3 0,4 3 0,1 1 1 0 0,1 0 0 1 1,3,1
1,15,8 5 2,3,6 4 2,2 1 0,2 1 0,10 6 2,0 1 2,8 4 0,3 4 0,1 1 1 0 0,1 0 0 1 1,3,1
1,15,7 5 3,3,6 4 2,1 1 1,1 1 1,9 6 3,4 1 3,7 4 1,2 4 1,0 1 0 1 1,0 1 1 0 1,2,1
1,16,16,1,2,14,4,16,1,16,1,0 1 0 0 0,0 1 0 0 0,3,3
1,16,14 2,2,4 2,10 0,0 0,15 2,0 2,14 1,4 1,1 0 1 0 0,0 1 0 0 1,3,2
1,16,13 3,2,4 2,9 1,4 1,14 3,4 3,13 2,3 2,0 0 0 1 1,0 0 1 1 0,2,2
1,16,12 4,2,4 2,8 2,3 2,13 4,3 4,12 3,2 3,0 0 0 1 1,0 0 1 1 0,2,2
1,16,11 5,2,4 2,7 3,2 3,12 5,2 0,11 4,1 4,1 0 1 0 0,0 1 0 0 1,3,2
1,16,10 6,2,4 2,6 4,1 4,11 6,1 1,10 5,0 0,0 2 0 0 0,2 0 0 0 0,3,3
1,16,10 4 2,3,6 4 2,4 0 0,4 0 0,12 5 2,2 0 2,10 3 0,0 3 0,1 0 2 0 0,2 0 0 1 0,3,2
1,16,9 7,2,4 2,5 5,0 0,10 7,0 2,9 6,4 1,1 0 1 0 0,0 1 0 0 1,3,2
1,16,9 5 2,3,6 4 2,3 1 0,3 1 0,11 6 2,1 1 2,9 4 0,4 4 0,0 2 1 0 0,1 0 0 0 2,3,1
1,16,8 6 2,3,6 4 2,2 2 0,2 2 0,10 7 2,0 2 2,8 5 0,3 0 0,1 0 2 0 0,2 0 0 1 0,3,2
1,16,8 5 3,3,6 4 2,2 1 1,2 1 1,10 6 3,0 1 3,8 4 1,3 4 1,1 1 0 1 0,0 1 0 1 1,3,1
1,17,17,1,2,15,0,17,2,17,2,0 0 1 0 0,0 0 1 0 0,3,3
1,17,15 2,2,4 2,11 0,1 0,16 2,1 2,15 1,0 1,0 1 1 0 0,1 1 0 0 0,3,3
1,17,14 3,2,4 2,10 1,0 1,15 3,0 3,14 2,4 2,1 0 0 1 0,0 0 1 0 1,3,2
1,17,13 4,2,4 2,9 2,4 2,14 4,4 4,13 3,3 3,0 0 0 0 2,0 0 0 2 0,2,2
1,17,12 5,2,4 2,8 3,3 3,13 5,3 0,12 4,2 4,1 0 0 1 0,0 0 1 0 1,3,2
1,17,11 6,2,4 2,7 4,2 4,12 6,2 1,11 5,1 0,0 1 1 0 0,1 1 0 0 0,3,3
1,17,11 4 2,3,6 4 2,5 0 0,0 0 0,13 5 2,3 0 2,11 3 0,1 3 0,1 0 1 1 0,1 1 0 1 0,3,2
1,17,10 7,2,4 2,6 5,1 0,11 7,1 2,10 6,0 1,0 1 1 0 0,1 1 0 0 0,3,3
1,17,10 5 2,3,6 4 2,4 1 0,4 1 0,12 6 2,2 1 2,10 4 0,0 4 0,0 1 2 0 0,2 0 0 0 1,3,2
1,17,9 6 2,3,6 4 2,3 2 0,3 2 0,11 7 2,1 2 2,9 5 0,4 0 0,0 1 2 0 0,2 0 0 0 1,3,2
1,17,9 5 3,3,6 4 2,3 1 1,3 1 1,11 6 3,1 1 3,9 4 1,4 4 1,0 2 0 1 0,0 1 0 0 2,3,1
1,17,8 6 3,3,6 4 2,2 2 1,2 2 1,10 7 3,0 2 3,8 5 1,3 0 1,1 0 1 1 0,1 1 0 1 0,3,2
1,18,18,1,2,16,1,18,3,18,3,0 0 0 1 0,0 0 0 1 0,3,3
1,18,16 2,2,4 2,12 0,2 0,17 2,2 2,16 1,1 1,0 0 2 0 0,0 2 0 0 0,3,3
1,18,15 3,2,4 2,11 1,1 1,16 3,1 3,15 2,0 2,0 1 0 1 0,1 0 1 0 0,3,3
1,18,14 4,2,4 2,10 2,0 2,15 4,0 4,14 3,4 3,1 0 0 0 1,0 0 0 1 1,3,2
1,18,13 5,2,4 2,9 3,4 3,14 5,4 0,13 4,3 4,1 0 0 0 1,0 0 0 1 1,3,2
1,18,12 6,2,4 2,8 4,3 4,13 6,3 1,12 5,2 0,0 1 0 1 0,1 0 1 0 0,3,3
1,18,12 4 2,3,6 4 2,6 0 0,1 0 0,14 5 2,4 0 2,12 3 0,2 3 0,1 0 1 0 1,1 0 1 1 0,3,2
1,18,11 7,2,4 2,7 5,2 0,12 7,2 2,11 6,1 1,0 0 2 0 0,0 2 0 0 0,3,3
1,18,11 5 2,3,6 4 2,5 1 0,0 1 0,13 6 2,3 1 2,11 4 0,1 4 0,0 1 1 1 0,1 1 0 0 1,3,2
1,18,10 8,2,4 2,6 6,1 1,11 8,1 3,10 7,0 2,0 1 0 1 0,1 0 1 0 0,3,3
1,18,10 6 2,3,6 4 2,4 2 0,4 2 0,12 7 2,2 2 2,10 5 0,0 0 0,0 0 3 0 0,3 0 0 0 0,3,3
1,18,10 5 3,3,6 4 2,4 1 1,4 1 1,12 6 3,2 1 3,10 4 1,0 4 1,0 1 1 1 0,1 1 0 0 1,3,2
1,18,9 7 2,3,6 4 2,3 3 0,3 3 0,11 8 2,1 3 2,9 6 0,4 1 0,0 1 1 1 0,1 1 0 0 1,3,2
1,18,9 6 3,3,6 4 2,3 2 1,3 2 1,11 7 3,1 2 3,9 5 1,4 0 1,0 1 1 1 0,1 1 0 0 1,3,2
1,18,8 6 4,3,6 4 2,2 2 2,2 2 2,10 7 4,0 2 4,8 5 2,3 0 2,1 0 1 0 1,1 0 1 1 0,3,2
1,19,19,1,2,17,2,19,4,19,4,0 0 0 0 1,0 0 0 0 1,3,3
1,19,17 2,2,4 2,13 0,3 0,18 2,3 2,17 1,2 1,0 0 1 1 0,0 1 1 0 0,3,3
1,19,16 3,2,4 2,12 1,2 1,17 3,2 3,16 2,1 2,0 0 1 1 0,0 1 1 0 0,3,3
1,19,15 4,2,4 2,11 2,1 2,16 4,1 4,15 3,0 3,0 1 0 0 1,1 0 0 1 0,3,3
1,19,14 5,2,4 2,10 3,0 3,15 5,0 0,14 4,4 4,2 0 0 0 0,0 0 0 0 2,4,2
1,19,13 6,2,4 2,9 4,4 4,14 6,4 1,13 5,3 0,0 1 0 0 1,1 0 0 1 0,3,3
1,19,13 4 2,3,6 4 2,7 0 0,2 0 0,15 5 2,0 0 2,13 3 0,3 3 0,2 0 1 0 0,1 0 0 2 0,4,2
1,19,12 7,2,4 2,8 5,3 0,13 7,3 2,12 6,2 1,0 0 1 1 0,0 1 1 0 0,3,3
1,19,12 5 2,3,6 4 2,6 1 0,1 1 0,14 6 2,4 1 2,12 4 0,2 4 0,0 1 1 0 1,1 0 1 0 1,3,2
1,19,11 8,2,4 2,7 6,2 1,12 8,2 3,11 7,1 2,0 0 1 1 0,0 1 1 0 0,3,3
1,19,11 6 2,3,6 4 2,5 2 0,0 2 0,13 7 2,3 2 2,11 5 0,1 0 0,0 0 2 1 0,2 1 0 0 0,3,3
1,19,11 5 3,3,6 4 2,5 1 1,0 1 1,13 6 3,3 1 3,11 4 1,1 4 1,0 1 0 2 0,0 2 0 0 1,3,2
1,19,10 7 2,3,6 4 2,4 3 0,4 3 0,12 8 2,2 3 2,10 6 0,0 1 0,0 0 2 1 0,2 1 0 0 0,3,3
1,19,10 6 3,3,6 4 2,4 2 1,4 2 1,12 7 3,2 2 3,10 5 1,0 0 1,0 0 2 1 0,2 1 0 0 0,3,3
1,19,9 7 3,3,6 4 2,3 3 1,3 3 1,11 8 3,1 3 3,9 6 1,4 1 1,0 1 0 2 0,0 2 0 0 1,3,2
1,19,9 6 4,3,6 4 2,3 2 2,3 2 2,11 7 4,1 2 4,9 5 2,4 0 2,0 1 1 0 1,1 0 1 0 1,3,2
1,20,20,1,2,18,3,20,0,20,0,1 0 0 0 0,1 0 0 0 0,4,4
1,20,18 2,2,4 2,14 0,4 0,19 2,4 2,18 1,3 1,0 0 1 0 1,0 1 0 1 0,3,3
1,20,17 3,2,4 2,13 1,3 1,18 3,3 3,17 2,2 2,0 0 0 2 0,0 0 2 0 0,3,3
1,20,16 4,2,4 2,12 2,2 2,17 4,2 4,16 3,1 3,0 0 1 0 1,0 1 0 1 0,3,3
1,20,15 5,2,4 2,11 3,1 3,16 5,1 0,15 4,0 4,1 1 0 0 0,1 0 0 0 1,4,3
1,20,14 6,2,4 2,10 4,0 4,15 6,0 1,14 5,4 0,1 1 0 0 0,1 0 0 0 1,4,3
1,20,14 4 2,3,6 4 2,8 0 0,3 0 0,16 5 2,1 0 2,14 3 0,4 3 0,1 1 1 0 0,1 0 0 1 1,4,2
1,20,13 7,2,4 2,9 5,4 0,14 7,4 2,13 6,3 1,0 0 1 0 1,0 1 0 1 0,3,3
1,20,13 5 2,3,6 4 2,7 1 0,2 1 0,15 6 2,0 1 2,13 4 0,3 4 0,1 1 1 0 0,1 0 0 1 1,4,2
1,20,12 8,2,4 2,8 6,3 1,13 8,3 3,12 7,2 2,0 0 0 2 0,0 0 2 0 0,3,3
1,20,12 6 2,3,6 4 2,6 2 0,1 2 0,14 7 2,4 2 2,12 5 0,2 0 0,0 0 2 0 1,2 0 1 0 0,3,3
1,20,12 5 3,3,6 4 2,6 1 1,1 1 1,14 6 3,4 1 3,12 4 1,2 4 1,0 1 0 1 1,0 1 1 0 1,3,2
1,20,11 9,2,4 2,7 7,2 2,12 9,2 4,11 8,1 3,0 0 1 0 1,0 1 0 1 0,3,3
1,20,11 7 2,3,6 4 2,5 3 0,0 3 0,13 8 2,3 3 2,11 6 0,1 1 0,0 0 1 2 0,1 2 0 0 0,3,3
1,20,11 6 3,3,6 4 2,5 2 1,0 2 1,13 7 3,3 2 3,11 5 1,1 0 1,0 0 1 2 0,1 2 0 0 0,3,3
1,20,10 8 2,3,6 4 2,4 4 0,4 4 0,12 9 2,2 4 2,10 7 0,0 2 0,0 0 2 0 1,2 0 1 0 0,3,3
1,20,10 7 3,3,6 4 2,4 3 1,4 3 1,12 8 3,2 3 3,10 6 1,0 1 1,0 0 1 2 0,1 2 0 0 0,3,3
1,20,10 6 4,3,6 4 2,4 2 2,4 2 2,12 7 4,2 2 4,10 5 2,0 0 2,0 0 2 0 1,2 0 1 0 0,3,3
1,20,9 7 4,3,6 4 2,3 3 2,3 3 2,11 8 4,1 3 4,9 6 2,4 1 2,0 1 0 1 1,0 1 1 0 1,3,2
1,20,8 6 4 2,4,8 6 4 2,0 0 0 0,0 0 0 0,11 8 5 2,1 3 0 2,8 5 2 -1,3 0 2 4,1 1 1 1 0,1 0 1 1 1,4,1
1,21,21,1,2,19,4,21,1,21,1,0 1 0 0 0,0 1 0 0 0,4,4
1,21,19 2,2,4 2,15 0,0 0,20 2,0 2,19 1,4 1,1 0 1 0 0,0 1 0 0 1,4,3
1,21,18 3,2,4 2,14 1,4 1,19 3,4 3,18 2,3 2,0 0 0 1 1,0 0 1 1 0,3,3
1,21,17 4,2,4 2,13 2,3 2,18 4,3 4,17 3,2 3,0 0 0 1 1,0 0 1 1 0,3,3
1,21,16 5,2,4 2,12 3,2 3,17 5,2 0,16 4,1 4,1 0 1 0 0,0 1 0 0 1,4,3
1,21,15 6,2,4 2,11 4,1 4,16 6,1 1,15 5,0 0,0 2 0 0 0,2 0 0 0 0,4,4
1,21,15 4 2,3,6 4 2,9 0 0,4 0 0,17 5 2,2 0 2,15 3 0,0 3 0,1 0 2 0 0,2 0 0 1 0,4,3
1,21,14 7,2,4 2,10 5,0 0,15 7,0 2,14 6,4 1,1 0 1 0 0,0 1 0 0 1,4,3
1,21,14 5 2,3,6 4 2,8 1 0,3 1 0,16 6 2,1 1 2,14 4 0,4 4 0,0 2 1 0 0,1 0 0 0 2,4,2
1,21,13 8,2,4 2,9 6,4 1,14 8,4 3,13 7,3 2,0 0 0 1 1,0 0 1 1 0,3,3
1,21,13 6 2,3,6 4 2,7 2 0,2 2 0,15 7 2,0 2 2,13 5 0,3 0 0,1 0 2 0 0,2 0 0 1 0,4,3
1,21,13 5 3,3,6 4 2,7 1 1,2 1 1,15 6 3,0 1 3,13 4 1,3 4 1,1 1 0 1 0,0 1 0 1 1,4,2
1,21,12 9,2,4 2,8 7,3 2,13 9,3 4,12 8,2 3,0 0 0 1 1,0 0 1 1 0,3,3
1,21,12 7 2,3,6 4 2,6 3 0,1 3 0,14 8 2,4 3 2,12 6 0,2 1 0,0 0 1 1 1,1 1 1 0 0,3,3
1,21,12 6 3,3,6 4 2,6 2 1,1 2 1,14 7 3,4 2 3,12 5 1,2 0 1,0 0 1 1 1,1 1 1 0 0,3,3
1,21,11 8 2,3,6 4 2,5 4 0,0 4 0,13 9 2,3 4 2,11 7 0,1 2 0,0 0 1 1 1,1 1 1 0 0,3,3
1,21,11 7 3,3,6 4 2,5 3 1,0 3 1,13 8 3,3 3 3,11 6 1,1 1 1,0 0 0 3 0,0 3 0 0 0,3,3
1,21,11 6 4,3,6 4 2,5 2 2,0 2 2,13 7 4,3 2 4,11 5 2,1 0 2,0 0 1 1 1,1 1 1 0 0,3,3
1,21,10 8 3,3,6 4 2,4 4 1,4 4 1,12 9 3,2 4 3,10 7 1,0 2 1,0 0 1 1 1,1 1 1 0 0,3,3
1,21,10 7 4,3,6 4 2,4 3 2,4 3 2,12 8 4,2 3 4,10 6 2,0 1 2,0 0 1 1 1,1 1 1 0 0,3,3
1,21,9 7 5,3,6 4 2,3 3 3,3 3 3,11 8 5,1 3 0,9 6 3,4 1 3,1 1 0 1 0,0 1 0 1 1,4,2
1,21,9 6 4 2,4,8 6 4 2,1 0 0 0,1 0 0 0,12 8 5 2,2 3 0 2,9 5 2 -1,4 0 2 4,1 0 2 1 0,1 0 1 0 2,4,1
1,22,22,1,2,20,0,22,2,22,2,0 0 1 0 0,0 0 1 0 0,4,4
1,22,20 2,2,4 2,16 0,1 0,21 2,1 2,20 1,0 1,0 1 1 0 0,1 1 0 0 0,4,4
1,22,19 3,2,4 2,15 1,0 1,20 3,0 3,19 2,4 2,1 0 0 1 0,0 0 1 0 1,4,3
1,22,18 4,2,4 2,14 2,4 2,19 4,4 4,18 3,3 3,0 0 0 0 2,0 0 0 2 0,3,3
1,22,17 5,2,4 2,13 3,3 3,18 5,3 0,17 4,2 4,1 0 0 1 0,0 0 1 0 1,4,3
1,22,16 6,2,4 2,12 4,2 4,17 6,2 1,16 5,1 0,0 1 1 0 0,1 1 0 0 0,4,4
1,22,16 4 2,3,6 4 2,10 0 0,0 0 0,18 5 2,3 0 2,16 3 0,1 3 0,1 0 1 1 0,1 1 0 1 0,4,3
1,22,15 7,2,4 2,11 5,1 0,16 7,1 2,15 6,0 1,0 1 1 0 0,1 1 0 0 0,4,4
1,22,15 5 2,3,6 4 2,9 1 0,4 1 0,17 6 2,2 1 2,15 4 0,0 4 0,0 1 2 0 0,2 0 0 0 1,4,3
1,22,14 8,2,4 2,10 6,0 1,15 8,0 3,14 7,4 2,1 0 0 1 0,0 0 1 0 1,4,3
1,22,14 6 2,3,6 4 2,8 2 0,3 2 0,16 7 2,1 2 2,14 5 0,4 0 0,0 1 2 0 0,2 0 0 0 1,4,3
1,22,14 5 3,3,6 4 2,8 1 1,3 1 1,16 6 3,1 1 3,14 4 1,4 4 1,0 2 0 1 0,0 1 0 0 2,4,2
1,22,13 9,2,4 2,9 7,4 2,14 9,4 4,13 8,3 3,0 0 0 0 2,0 0 0 2 0,3,3
1,22,13 7 2,3,6 4 2,7 3 0,2 3 0,15 8 2,0 3 2,13 6 0,3 1 0,1 0 1 1 0,1 1 0 1 0,4,3
1,22,13 6 3,3,6 4 2,7 2 1,2 2 1,15 7 3,0 2 3,13 5 1,3 0 1,1 0 1 1 0,1 1 0 1 0,4,3
1,22,12 10,2,4 2,8 8,3 3,13 10,3 0,12 9,2 4,1 0 0 1 0,0 0 1 0 1,4,3
1,22,12 8 2,3,6 4 2,6 4 0,1 4 0,14 9 2,4 4 2,12 7 0,2 2 0,0 0 1 0 2,1 0 2 0 0,3,3
1,22,12 7 3,3,6 4 2,6 3 1,1 3 1,14 8 3,4 3 3,12 6 1,2 1 1,0 0 0 2 1,0 2 1 0 0,3,3
1,22,12 6 4,3,6 4 2,6 2 2,1 2 2,14 7 4,4 2 4,12 5 2,2 0 2,0 0 1 0 2,1 0 2 0 0,3,3
1,22,11 9 2,3,6 4 2,5 5 0,0 0 0,13 10 2,3 0 2,11 8 0,1 3 0,1 0 1 1 0,1 1 0 1 0,4,3
1,22,11 8 3,3,6 4 2,5 4 1,0 4 1,13 9 3,3 4 3,11 7 1,1 2 1,0 0 0 2 1,0 2 1 0 0,3,3
1,22,11 7 4,3,6 4 2,5 3 2,0 3 2,13 8 4,3 3 4,11 6 2,1 1 2,0 0 0 2 1,0 2 1 0 0,3,3
1,22,10 8 4,3,6 4 2,4 4 2,4 4 2,12 9 4,2 4 4,10 7 2,0 2 2,0 0 1 0 2,1 0 2 0 0,3,3
1,22,10 7 5,3,6 4 2,4 3 3,4 3 3,12 8 5,2 3 0,10 6 3,0 1 3,1 0 1 1 0,1 1 0 1 0,4,3
1,22,10 6 4 2,4,8 6 4 2,2 0 0 0,2 0 0 0,13 8 5 2,3 3 0 2,10 5 2 -1,0 0 2 4,1 0 1 2 0,2 0 1 0 1,4,2
1,22,9 7 4 2,4,8 6 4 2,1 1 0 0,1 1 0 0,12 9 5 2,2 4 0 2,9 6 2 -1,4 1 2 4,1 0 2 0 1,0 1 1 0 2,4,1
1,23,23,1,2,21,1,23,3,23,3,0 0 0 1 0,0 0 0 1 0,4,4
1,23,21 2,2,4 2,17 0,2 0,22 2,2 2,21 1,1 1,0 0 2 0 0,0 2 0 0 0,4,4
1,23,20 3,2,4 2,16 1,1 1,21 3,1 3,20 2,0 2,0 1 0 1 0,1 0 1 0 0,4,4
1,23,19 4,2,4 2,15 2,0 2,20 4,0 4,19 3,4 3,1 0 0 0 1,0 0 0 1 1,4,3
1,23,18 5,2,4 2,14 3,4 3,19 5,4 0,18 4,3 4,1 0 0 0 1,0 0 0 1 1,4,3
1,23,17 6,2,4 2,13 4,3 4,18 6,3 1,17 5,2 0,0 1 0 1 0,1 0 1 0 0,4,4
1,23,17 4 2,3,6 4 2,11 0 0,1 0 0,19 5 2,4 0 2,17 3 0,2 3 0,1 0 1 0 1,1 0 1 1 0,4,3
1,23,16 7,2,4 2,12 5,2 0,17 7,2 2,16 6,1 1,0 0 2 0 0,0 2 0 0 0,4,4
1,23,16 5 2,3,6 4 2,10 1 0,0 1 0,18 6 2,3 1 2,16 4 0,1 4 0,0 1 1 1 0,1 1 0 0 1,4,3
1,23,15 8,2,4 2,11 6,1 1,16 8,1 3,15 7,0 2,0 1 0 1 0,1 0 1 0 0,4,4
1,23,15 6 2,3,6 4 2,9 2 0,4 2 0,17 7 2,2 2 2,15 5 0,0 0 0,0 0 3 0 0,3 0 0 0 0,4,4
1,23,15 5 3,3,6 4 2,9 1 1,4 1 1,17 6 3,2 1 3,15 4 1,0 4 1,0 1 1 1 0,1 1 0 0 1,4,3
1,23,14 9,2,4 2,10 7,0 2,15 9,0 4,14 8,4 3,1 0 0 0 1,0 0 0 1 1,4,3
1,23,14 7 2,3,6 4 2,8 3 0,3 3 0,16 8 2,1 3 2,14 6 0,4 1 0,0 1 1 1 0,1 1 0 0 1,4,3
1,23,14 6 3,3,6 4 2,8 2 1,3 2 1,16 7 3,1 2 3,14 5 1,4 0 1,0 1 1 1 0,1 1 0 0 1,4,3
1,23,13 10,2,4 2,9 8,4 3,14 10,4 0,13 9,3 4,1 0 0 0 1,0 0 0 1 1,4,3
1,23,13 8 2,3,6 4 2,7 4 0,2 4 0,15 9 2,0 4 2,13 7 0,3 2 0,1 0 1 0 1,1 0 1 1 0,4,3
1,23,13 7 3,3,6 4 2,7 3 1,2 3 1,15 8 3,0 3 3,13 6 1,3 1 1,1 0 0 2 0,0 2 0 1 0,4,3
1,23,13 6 4,3,6 4 2,7 2 2,2 2 2,15 7 4,0 2 4,13 5 2,3 0 2,1 0 1 0 1,1 0 1 1 0,4,3
1,23,12 9 2,3,6 4 2,6 5 0,1 0 0,14 10 2,4 0 2,12 8 0,2 3 0,1 0 1 0 1,1 0 1 1 0,4,3
1,23,12 8 3,3,6 4 2,6 4 1,1 4 1,14 9 3,4 4 3,12 7 1,2 2 1,0 0 0 1 2,0 1 2 0 0,3,3
1,23,12 7 4,3,6 4 2,6 3 2,1 3 2,14 8 4,4 3 4,12 6 2,2 1 2,0 0 0 1 2,0 1 2 0 0,3,3
1,23,11 9 3,3,6 4 2,5 5 1,0 0 1,13 10 3,3 0 3,11 8 1,1 3 1,1 0 0 2 0,0 2 0 1 0,4,3
1,23,11 8 4,3,6 4 2,5 4 2,0 4 2,13 9 4,3 4 4,11 7 2,1 2 2,0 0 0 1 2,0 1 2 0 0,3,3
1,23,11 7 5,3,6 4 2,5 3 3,0 3 3,13 8 5,3 3 0,11 6 3,1 1 3,1 0 0 2 0,0 2 0 1 0,4,3
1,23,11 6 4 2,4,8 6 4 2,3 0 0 0,3 0 0 0,14 8 5 2,4 3 0 2,11 5 2 -1,1 0 2 4,1 0 1 1 1,1 1 1 0 1,4,2
1,23,10 8 5,3,6 4 2,4 4 3,4 4 3,12 9 5,2 4 0,10 7 3,0 2 3,1 0 1 0 1,1 0 1 1 0,4,3
1,23,10 7 4 2,4,8 6 4 2,2 1 0 0,2 1 0 0,13 9 5 2,3 4 0 2,10 6 2 -1,0 1 2 4,1 0 1 1 1,1 1 1 0 1,4,2
1,23,9 7 5 2,4,8 6 4 2,1 1 1 0,1 1 1 0,12 9 6 2,2 4 1 2,9 6 3 -1,4 1 3 4,0 1 2 0 1,0 1 0 1 2,4,1
1,24,24,1,2,22,2,24,4,24,4,0 0 0 0 1,0 0 0 0 1,4,4
1,24,22 2,2,4 2,18 0,3 0,23 2,3 2,22 1,2 1,0 0 1 1 0,0 1 1 0 0,4,4
1,24,21 3,2,4 2,17 1,2 1,22 3,2 3,21 2,1 2,0 0 1 1 0,0 1 1 0 0,4,4
1,24,20 4,2,4 2,16 2,1 2,21 4,1 4,20 3,0 3,0 1 0 0 1,1 0 0 1 0,4,4
1,24,19 5,2,4 2,15 3,0 3,20 5,0 0,19 4,4 4,2 0 0 0 0,0 0 0 0 2,5,3
1,24,18 6,2,4 2,14 4,4 4,19 6,4 1,18 5,3 0,0 1 0 0 1,1 0 0 1 0,4,4
1,24,18 4 2,3,6 4 2,12 0 0,2 0 0,20 5 2,0 0 2,18 3 0,3 3 0,2 0 1 0 0,1 0 0 2 0,5,3
1,24,17 7,2,4 2,13 5,3 0,18 7,3 2,17 6,2 1,0 0 1 1 0,0 1 1 0 0,4,4
1,24,17 5 2,3,6 4 2,11 1 0,1 1 0,19 6 2,4 1 2,17 4 0,2 4 0,0 1 1 0 1,1 0 1 0 1,4,3
1,24,16 8,2,4 2,12 6,2 1,17 8,2 3,16 7,1 2,0 0 1 1 0,0 1 1 0 0,4,4
1,24,16 6 2,3,6 4 2,10 2 0,0 2 0,18 7 2,3 2 2,16 5 0,1 0 0,0 0 2 1 0,2 1 0 0 0,4,4
1,24,16 5 3,3,6 4 2,10 1 1,0 1 1,18 6 3,3 1 3,16 4 1,1 4 1,0 1 0 2 0,0 2 0 0 1,4,3
1,24,15 9,2,4 2,11 7,1 2,16 9,1 4,15 8,0 3,0 1 0 0 1,1 0 0 1 0,4,4
1,24,15 7 2,3,6 4 2,9 3 0,4 3 0,17 8 2,2 3 2,15 6 0,0 1 0,0 0 2 1 0,2 1 0 0 0,4,4
1,24,15 6 3,3,6 4 2,9 2 1,4 2 1,17 7 3,2 2 3,15 5 1,0 0 1,0 0 2 1 0,2 1 0 0 0,4,4
1,24,14 10,2,4 2,10 8,0 3,15 10,0 0,14 9,4 4,2 0 0 0 0,0 0 0 0 2,5,3
1,24,14 8 2,3,6 4 2,8 4 0,3 4 0,16 9 2,1 4 2,14 7 0,4 2 0,0 1 1 0 1,1 0 1 0 1,4,3
1,24,14 7 3,3,6 4 2,8 3 1,3 3 1,16 8 3,1 3 3,14 6 1,4 1 1,0 1 0 2 0,0 2 0 0 1,4,3
1,24,14 6 4,3,6 4 2,8 2 2,3 2 2,16 7 4,1 2 4,14 5 2,4 0 2,0 1 1 0 1,1 0 1 0 1,4,3
1,24,13 11,2,4 2,9 9,4 4,14 11,4 1,13 10,3 0,0 1 0 0 1,1 0 0 1 0,4,4
1,24,13 9 2,3,6 4 2,7 5 0,2 0 0,15 10 2,0 0 2,13 8 0,3 3 0,2 0 1 0 0,1 0 0 2 0,5,3
1,24,13 8 3,3,6 4 2,7 4 1,2 4 1,15 9 3,0 4 3,13 7 1,3 2 1,1 0 0 1 1,0 1 1 1 0,4,3
1,24,13 7 4,3,6 4 2,7 3 2,2 3 2,15 8 4,0 3 4,13 6 2,3 1 2,1 0 0 1 1,0 1 1 1 0,4,3
1,24,12 10 2,3,6 4 2,6 6 0,1 1 0,14 11 2,4 1 2,12 9 0,2 4 0,0 1 1 0 1,1 0 1 0 1,4,3
1,24,12 9 3,3,6 4 2,6 5 1,1 0 1,14 10 3,4 0 3,12 8 1,2 3 1,1 0 0 1 1,0 1 1 1 0,4,3
1,24,12 8 4,3,6 4 2,6 4 2,1 4 2,14 9 4,4 4 4,12 7 2,2 2 2,0 0 0 0 3,0 0 3 0 0,3,3
1,24,12 7 5,3,6 4 2,6 3 3,1 3 3,14 8 5,4 3 0,12 6 3,2 1 3,1 0 0 1 1,0 1 1 1 0,4,3
1,24,12 6 4 2,4,8 6 4 2,4 0 0 0,4 0 0 0,15 8 5 2,0 3 0 2,12 5 2 -1,2 0 2 4,2 0 1 1 0,1 0 2 0 1,5,2
1,24,11 9 4,3,6 4 2,5 5 2,0 0 2,13 10 4,3 0 4,11 8 2,1 3 2,1 0 0 1 1,0 1 1 1 0,4,3
1,24,11 8 5,3,6 4 2,5 4 3,0 4 3,13 9 5,3 4 0,11 7 3,1 2 3,1 0 0 1 1,0 1 1 1 0,4,3
1,24,11 7 4 2,4,8 6 4 2,3 1 0 0,3 1 0 0,14 9 5 2,4 4 0 2,11 6 2 -1,1 1 2 4,1 0 1 0 2,0 2 1 0 1,4,2
1,24,10 8 6,3,6 4 2,4 4 4,4 4 4,12 9 6,2 4 1,10 7 4,0 2 4,0 1 1 0 1,1 0 1 0 1,4,3
1,24,10 8 4 2,4,8 6 4 2,2 2 0 0,2 2 0 0,13 10 5 2,3 0 0 2,10 7 2 -1,0 2 2 4,2 0 1 1 0,1 0 2 0 1,5,2
1,24,10 7 5 2,4,8 6 4 2,2 1 1 0,2 1 1 0,13 9 6 2,3 4 1 2,10 6 3 -1,0 1 3 4,0 1 1 1 1,1 1 0 1 1,4,2
1,24,9 7 5 3,4,8 6 4 2,1 1 1 1,1 1 1 1,12 9 6 3,2 4 1 3,9 6 3 0,4 1 3 0,0 1 1 1 1,1 1 0 1 1,4,2
1,25,25,1,2,23,3,25,0,25,0,1 0 0 0 0,1 0 0 0 0,5,5
1,25,23 2,2,4 2,19 0,4 0,24 2,4 2,23 1,3 1,0 0 1 0 1,0 1 0 1 0,4,4
1,25,22 3,2,4 2,18 1,3 1,23 3,3 3,22 2,2 2,0 0 0 2 0,0 0 2 0 0,4,4
1,25,21 4,2,4 2,17 2,2 2,22 4,2 4,21 3,1 3,0 0 1 0 1,0 1 0 1 0,4,4
1,25,20 5,2,4 2,16 3,1 3,21 5,1 0,20 4,0 4,1 1 0 0 0,1 0 0 0 1,5,4
1,25,19 6,2,4 2,15 4,0 4,20 6,0 1,19 5,4 0,1 1 0 0 0,1 0 0 0 1,5,4
1,25,19 4 2,3,6 4 2,13 0 0,3 0 0,21 5 2,1 0 2,19 3 0,4 3 0,1 1 1 0 0,1 0 0 1 1,5,3
1,25,18 7,2,4 2,14 5,4 0,19 7,4 2,18 6,3 1,0 0 1 0 1,0 1 0 1 0,4,4
1,25,18 5 2,3,6 4 2,12 1 0,2 1 0,20 6 2,0 1 2,18 4 0,3 4 0,1 1 1 0 0,1 0 0 1 1,5,3
1,25,17 8,2,4 2,13 6,3 1,18 8,3 3,17 7,2 2,0 0 0 2 0,0 0 2 0 0,4,4
1,25,17 6 2,3,6 4 2,11 2 0,1 2 0,19 7 2,4 2 2,17 5 0,2 0 0,0 0 2 0 1,2 0 1 0 0,4,4
1,25,17 5 3,3,6 4 2,11 1 1,1 1 1,19 6 3,4 1 3,17 4 1,2 4 1,0 1 0 1 1,0 1 1 0 1,4,3
1,25,16 9,2,4 2,12 7,2 2,17 9,2 4,16 8,1 3,0 0 1 0 1,0 1 0 1 0,4,4
1,25,16 7 2,3,6 4 2,10 3 0,0 3 0,18 8 2,3 3 2,16 6 0,1 1 0,0 0 1 2 0,1 2 0 0 0,4,4
1,25,16 6 3,3,6 4 2,10 2 1,0 2 1,18 7 3,3 2 3,16 5 1,1 0 1,0 0 1 2 0,1 2 0 0 0,4,4
1,25,15 10,2,4 2,11 8,1 3,16 10,1 0,15 9,0 4,1 1 0 0 0,1 0 0 0 1,5,4
1,25,15 8 2,3,6 4 2,9 4 0,4 4 0,17 9 2,2 4 2,15 7 0,0 2 0,0 0 2 0 1,2 0 1 0 0,4,4
1,25,15 7 3,3,6 4 2,9 3 1,4 3 1,17 8 3,2 3 3,15 6 1,0 1 1,0 0 1 2 0,1 2 0 0 0,4,4
1,25,15 6 4,3,6 4 2,9 2 2,4 2 2,17 7 4,2 2 4,15 5 2,0 0 2,0 0 2 0 1,2 0 1 0 0,4,4
1,25,14 11,2,4 2,10 9,0 4,15 11,0 1,14 10,4 0,1 1 0 0 0,1 0 0 0 1,5,4
1,25,14 9 2,3,6 4 2,8 5 0,3 0 0,16 10 2,1 0 2,14 8 0,4 3 0,1 1 1 0 0,1 0 0 1 1,5,3
1,25,14 8 3,3,6 4 2,8 4 1,3 4 1,16 9 3,1 4 3,14 7 1,4 2 1,0 1 0 1 1,0 1 1 0 1,4,3
1,25,14 7 4,3,6 4 2,8 3 2,3 3 2,16 8 4,1 3 4,14 6 2,4 1 2,0 1 0 1 1,0 1 1 0 1,4,3
1,25,13 10 2,3,6 4 2,7 6 0,2 1 0,15 11 2,0 1 2,13 9 0,3 4 0,1 1 1 0 0,1 0 0 1 1,5,3
1,25,13 9 3,3,6 4 2,7 5 1,2 0 1,15 10 3,0 0 3,13 8 1,3 3 1,2 0 0 1 0,0 1 0 2 0,5,3
1,25,13 8 4,3,6 4 2,7 4 2,2 4 2,15 9 4,0 4 4,13 7 2,3 2 2,1 0 0 0 2,0 0 2 1 0,4,3
1,25,13 7 5,3,6 4 2,7 3 3,2 3 3,15 8 5,0 3 0,13 6 3,3 1 3,2 0 0 1 0,0 1 0 2 0,5,3
1,25,13 6 4 2,4,8 6 4 2,5 0 0 0,0 0 0 0,16 8 5 2,1 3 0 2,13 5 2 -1,3 0 2 4,1 1 1 1 0,1 0 1 1 1,5,2
1,25,12 10 3,3,6 4 2,6 6 1,1 1 1,14 11 3,4 1 3,12 9 1,2 4 1,0 1 0 1 1,0 1 1 0 1,4,3
1,25,12 9 4,3,6 4 2,6 5 2,1 0 2,14 10 4,4 0 4,12 8 2,2 3 2,1 0 0 0 2,0 0 2 1 0,4,3
1,25,12 8 5,3,6 4 2,6 4 3,1 4 3,14 9 5,4 4 0,12 7 3,2 2 3,1 0 0 0 2,0 0 2 1 0,4,3
1,25,12 7 4 2,4,8 6 4 2,4 1 0 0,4 1 0 0,15 9 5 2,0 4 0 2,12 6 2 -1,2 1 2 4,2 0 1 0 1,0 1 2 0 1,5,2
1,25,11 9 5,3,6 4 2,5 5 3,0 0 3,13 10 5,3 0 0,11 8 3,1 3 3,2 0 0 1 0,0 1 0 2 0,5,3
1,25,11 8 6,3,6 4 2,5 4 4,0 4 4,13 9 6,3 4 1,11 7 4,1 2 4,0 1 0 1 1,0 1 1 0 1,4,3
1,25,11 8 4 2,4,8 6 4 2,3 2 0 0,3 2 0 0,14 10 5 2,4 0 0 2,11 7 2 -1,1 2 2 4,2 0 1 0 1,0 1 2 0 1,5,2
1,25,11 7 5 2,4,8 6 4 2,3 1 1 0,3 1 1 0,14 9 6 2,4 4 1 2,11 6 3 -1,1 1 3 4,0 1 1 0 2,0 2 0 1 1,4,2
1,25,10 8 5 2,4,8 6 4 2,2 2 1 0,2 2 1 0,13 10 6 2,3 0 1 2,10 7 3 -1,0 2 3 4,1 1 1 1 0,1 0 1 1 1,5,2
1,25,10 7 5 3,4,8 6 4 2,2 1 1 1,2 1 1 1,13 9 6 3,3 4 1 3,10 6 3 0,0 1 3 0,0 1 0 2 1,2 1 0 1 0,4,3
1,26,26,1,2,24,4,26,1,26,1,0 1 0 0 0,0 1 0 0 0,5,5
1,26,24 2,2,4 2,20 0,0 0,25 2,0 2,24 1,4 1,1 0 1 0 0,0 1 0 0 1,5,4
1,26,23 3,2,4 2,19 1,4 1,24 3,4 3,23 2,3 2,0 0 0 1 1,0 0 1 1 0,4,4
1,26,22 4,2,4 2,18 2,3 2,23 4,3 4,22 3,2 3,0 0 0 1 1,0 0 1 1 0,4,4
1,26,21 5,2,4 2,17 3,2 3,22 5,2 0,21 4,1 4,1 0 1 0 0,0 1 0 0 1,5,4
1,26,20 6,2,4 2,16 4,1 4,21 6,1 1,20 5,0 0,0 2 0 0 0,2 0 0 0 0,5,5
1,26,20 4 2,3,6 4 2,14 0 0,4 0 0,22 5 2,2 0 2,20 3 0,0 3 0,1 0 2 0 0,2 0 0 1 0,5,4
1,26,19 7,2,4 2,15 5,0 0,20 7,0 2,19 6,4 1,1 0 1 0 0,0 1 0 0 1,5,4
1,26,19 5 2,3,6 4 2,13 1 0,3 1 0,21 6 2,1 1 2,19 4 0,4 4 0,0 2 1 0 0,1 0 0 0 2,5,3
1,26,18 8,2,4 2,14 6,4 1,19 8,4 3,18 7,3 2,0 0 0 1 1,0 0 1 1 0,4,4
1,26,18 6 2,3,6 4 2,12 2 0,2 2 0,20 7 2,0 2 2,18 5 0,3 0 0,1 0 2 0 0,2 0 0 1 0,5,4
1,26,18 5 3,3,6 4 2,12 1 1,2 1 1,20 6 3,0 1 3,18 4 1,3 4 1,1 1 0 1 0,0 1 0 1 1,5,3
1,26,17 9,2,4 2,13 7,3 2,18 9,3 4,17 8,2 3,0 0 0 1 1,0 0 1 1 0,4,4
1,26,17 7 2,3,6 4 2,11 3 0,1 3 0,19 8 2,4 3 2,17 6 0,2 1 0,0 0 1 1 1,1 1 1 0 0,4,4
1,26,17 6 3,3,6 4 2,11 2 1,1 2 1,19 7 3,4 2 3,17 5 1,2 0 1,0 0 1 1 1,1 1 1 0 0,4,4
1,26,16 10,2,4 2,12 8,2 3,17 10,2 0,16 9,1 4,1 0 1 0 0,0 1 0 0 1,5,4
1,26,16 8 2,3,6 4 2,10 4 0,0 4 0,18 9 2,3 4 2,16 7 0,1 2 0,0 0 1 1 1,1 1 1 0 0,4,4
1,26,16 7 3,3,6 4 2,10 3 1,0 3 1,18 8 3,3 3 3,16 6 1,1 1 1,0 0 0 3 0,0 3 0 0 0,4,4
1,26,16 6 4,3,6 4 2,10 2 2,0 2 2,18 7 4,3 2 4,16 5 2,1 0 2,0 0 1 1 1,1 1 1 0 0,4,4
1,26,15 11,2,4 2,11 9,1 4,16 11,1 1,15 10,0 0,0 2 0 0 0,2 0 0 0 0,5,5
1,26,15 9 2,3,6 4 2,9 5 0,4 0 0,17 10 2,2 0 2,15 8 0,0 3 0,1 0 2 0 0,2 0 0 1 0,5,4
1,26,15 8 3,3,6 4 2,9 4 1,4 4 1,17 9 3,2 4 3,15 7 1,0 2 1,0 0 1 1 1,1 1 1 0 0,4,4
1,26,15 7 4,3,6 4 2,9 3 2,4 3 2,17 8 4,2 3 4,15 6 2,0 1 2,0 0 1 1 1,1 1 1 0 0,4,4
1,26,14 12,2,4 2,10 10,0 0,15 12,0 2,14 11,4 1,1 0 1 0 0,0 1 0 0 1,5,4
1,26,14 10 2,3,6 4 2,8 6 0,3 1 0,16 11 2,1 1 2,14 9 0,4 4 0,0 2 1 0 0,1 0 0 0 2,5,3
1,26,14 9 3,3,6 4 2,8 5 1,3 0 1,16 10 3,1 0 3,14 8 1,4 3 1,1 1 0 1 0,0 1 0 1 1,5,3
1,26,14 8 4,3,6 4 2,8 4 2,3 4 2,16 9 4,1 4 4,14 7 2,4 2 2,0 1 0 0 2,0 0 2 0 1,4,3
1,26,14 7 5,3,6 4 2,8 3 3,3 3 3,16 8 5,1 3 0,14 6 3,4 1 3,1 1 0 1 0,0 1 0 1 1,5,3
1,26,14 6 4 2,4,8 6 4 2,6 0 0 0,1 0 0 0,17 8 5 2,2 3 0 2,14 5 2 -1,4 0 2 4,1 0 2 1 0,1 0 1 0 2,5,2
1,26,13 11 2,3,6 4 2,7 7 0,2 2 0,15 12 2,0 2 2,13 10 0,3 0 0,1 0 2 0 0,2 0 0 1 0,5,4
1,26,13 10 3,3,6 4 2,7 6 1,2 1 1,15 11 3,0 1 3,13 9 1,3 4 1,1 1 0 1 0,0 1 0 1 1,5,3
1,26,13 9 4,3,6 4 2,7 5 2,2 0 2,15 10 4,0 0 4,13 8 2,3 3 2,2 0 0 0 1,0 0 1 2 0,5,3
1,26,13 8 5,3,6 4 2,7 4 3,2 4 3,15 9 5,0 4 0,13 7 3,3 2 3,2 0 0 0 1,0 0 1 2 0,5,3
1,26,13 7 4 2,4,8 6 4 2,5 1 0 0,0 1 0 0,16 9 5 2,1 4 0 2,13 6 2 -1,3 1 2 4,1 1 1 0 1,0 1 1 1 1,5,2
1,26,12 10 4,3,6 4 2,6 6 2,1 1 2,14 11 4,4 1 4,12 9 2,2 4 2,0 1 0 0 2,0 0 2 0 1,4,3
1,26,12 9 5,3,6 4 2,6 5 3,1 0 3,14 10 5,4 0 0,12 8 3,2 3 3,2 0 0 0 1,0 0 1 2 0,5,3
1,26,12 8 6,3,6 4 2,6 4 4,1 4 4,14 9 6,4 4 1,12 7 4,2 2 4,0 1 0 0 2,0 0 2 0 1,4,3
1,26,12 8 4 2,4,8 6 4 2,4 2 0 0,4 2 0 0,15 10 5 2,0 0 0 2,12 7 2 -1,2 2 2 4,3 0 1 0 0,0 0 3 0 1,6,2
1,26,12 7 5 2,4,8 6 4 2,4 1 1 0,4 1 1 0,15 9 6 2,0 4 1 2,12 6 3 -1,2 1 3 4,1 1 1 0 1,0 1 1 1 1,5,2
1,26,11 9 6,3,6 4 2,5 5 4,0 0 4,13 10 6,3 0 1,11 8 4,1 3 4,1 1 0 1 0,0 1 0 1 1,5,3
1,26,11 9 4 2,4,8 6 4 2,3 3 0 0,3 3 0 0,14 11 5 2,4 1 0 2,11 8 2 -1,1 3 2 4,1 1 1 0 1,0 1 1 1 1,5,2
1,26,11 8 5 2,4,8 6 4 2,3 2 1 0,3 2 1 0,14 10 6 2,4 0 1 2,11 7 3 -1,1 2 3 4,1 1 1 0 1,0 1 1 1 1,5,2
1,26,11 7 5 3,4,8 6 4 2,3 1 1 1,3 1 1 1,14 9 6 3,4 4 1 3,11 6 3 0,1 1 3 0,0 1 0 1 2,1 2 0 1 0,4,3
1,26,10 8 6 2,4,8 6 4 2,2 2 2 0,2 2 2 0,13 10 7 2,3 0 2 2,10 7 4 -1,0 2 4 4,1 0 2 1 0,1 0 1 0 2,5,2
1,26,10 8 5 3,4,8 6 4 2,2 2 1 1,2 2 1 1,13 10 6 3,3 0 1 3,10 7 3 0,0 2 3 0,1 1 0 2 0,2 0 1 1 0,5,3
1,27,27,1,2,25,0,27,2,27,2,0 0 1 0 0,0 0 1 0 0,5,5
1,27,25 2,2,4 2,21 0,1 0,26 2,1 2,25 1,0 1,0 1 1 0 0,1 1 0 0 0,5,5
1,27,24 3,2,4 2,20 1,0 1,25 3,0 3,24 2,4 2,1 0 0 1 0,0 0 1 0 1,5,4
1,27,23 4,2,4 2,19 2,4 2,24 4,4 4,23 3,3 3,0 0 0 0 2,0 0 0 2 0,4,4
1,27,22 5,2,4 2,18 3,3 3,23 5,3 0,22 4,2 4,1 0 0 1 0,0 0 1 0 1,5,4
1,27,21 6,2,4 2,17 4,2 4,22 6,2 1,21 5,1 0,0 1 1 0 0,1 1 0 0 0,5,5
1,27,21 4 2,3,6 4 2,15 0 0,0 0 0,23 5 2,3 0 2,21 3 0,1 3 0,1 0 1 1 0,1 1 0 1 0,5,4
1,27,20 7,2,4 2,16 5,1 0,21 7,1 2,20 6,0 1,0 1 1 0 0,1 1 0 0 0,5,5
1,27,20 5 2,3,6 4 2,14 1 0,4 1 0,22 6 2,2 1 2,20 4 0,0 4 0,0 1 2 0 0,2 0 0 0 1,5,4
1,27,19 8,2,4 2,15 6,0 1,20 8,0 3,19 7,4 2,1 0 0 1 0,0 0 1 0 1,5,4
1,27,19 6 2,3,6 4 2,13 2 0,3 2 0,21 7 2,1 2 2,19 5 0,4 0 0,0 1 2 0 0,2 0 0 0 1,5,4
1,27,19 5 3,3,6 4 2,13 1 1,3 1 1,21 6 3,1 1 3,19 4 1,4 4 1,0 2 0 1 0,0 1 0 0 2,5,3
1,27,18 9,2,4 2,14 7,4 2,19 9,4 4,18 8,3 3,0 0 0 0 2,0 0 0 2 0,4,4
1,27,18 7 2,3,6 4 2,12 3 0,2 3 0,20 8 2,0 3 2,18 6 0,3 1 0,1 0 1 1 0,1 1 0 1 0,5,4
1,27,18 6 3,3,6 4 2,12 2 1,2 2 1,20 7 3,0 2 3,18 5 1,3 0 1,1 0 1 1 0,1 1 0 1 0,5,4
1,27,17 10,2,4 2,13 8,3 3,18 10,3 0,17 9,2 4,1 0 0 1 0,0 0 1 0 1,5,4
1,27,17 8 2,3,6 4 2,11 4 0,1 4 0,19 9 2,4 4 2,17 7 0,2 2 0,0 0 1 0 2,1 0 2 0 0,4,4
1,27,17 7 3,3,6 4 2,11 3 1,1 3 1,19 8 3,4 3 3,17 6 1,2 1 1,0 0 0 2 1,0 2 1 0 0,4,4
1,27,17 6 4,3,6 4 2,11 2 2,1 2 2,19 7 4,4 2 4,17 5 2,2 0 2,0 0 1 0 2,1 0 2 0 0,4,4
1,27,16 11,2,4 2,12 9,2 4,17 11,2 1,16 10,1 0,0 1 1 0 0,1 1 0 0 0,5,5
1,27,16 9 2,3,6 4 2,10 5 0,0 0 0,18 10 2,3 0 2,16 8 0,1 3 0,1 0 1 1 0,1 1 0 1 0,5,4
1,27,16 8 3,3,6 4 2,10 4 1,0 4 1,18 9 3,3 4 3,16 7 1,1 2 1,0 0 0 2 1,0 2 1 0 0,4,4
1,27,16 7 4,3,6 4 2,10 3 2,0 3 2,18 8 4,3 3 4,16 6 2,1 1 2,0 0 0 2 1,0 2 1 0 0,4,4
1,27,15 12,2,4 2,11 10,1 0,16 12,1 2,15 11,0 1,0 1 1 0 0,1 1 0 0 0,5,5
1,27,15 10 2,3,6 4 2,9 6 0,4 1 0,17 11 2,2 1 2,15 9 0,0 4 0,0 1 2 0 0,2 0 0 0 1,5,4
1,27,15 9 3,3,6 4 2,9 5 1,4 0 1,17 10 3,2 0 3,15 8 1,0 3 1,1 0 1 1 0,1 1 0 1 0,5,4
1,27,15 8 4,3,6 4 2,9 4 2,4 4 2,17 9 4,2 4 4,15 7 2,0 2 2,0 0 1 0 2,1 0 2 0 0,4,4
1,27,15 7 5,3,6 4 2,9 3 3,4 3 3,17 8 5,2 3 0,15 6 3,0 1 3,1 0 1 1 0,1 1 0 1 0,5,4
1,27,15 6 4 2,4,8 6 4 2,7 0 0 0,2 0 0 0,18 8 5 2,3 3 0 2,15 5 2 -1,0 0 2 4,1 0 1 2 0,2 0 1 0 1,5,3
1,27,14 11 2,3,6 4 2,8 7 0,3 2 0,16 12 2,1 2 2,14 10 0,4 0 0,0 1 2 0 0,2 0 0 0 1,5,4
1,27,14 10 3,3,6 4 2,8 6 1,3 1 1,16 11 3,1 1 3,14 9 1,4 4 1,0 2 0 1 0,0 1 0 0 2,5,3
1,27,14 9 4,3,6 4 2,8 5 2,3 0 2,16 10 4,1 0 4,14 8 2,4 3 2,1 1 0 0 1,0 0 1 1 1,5,3
1,27,14 8 5,3,6 4 2,8 4 3,3 4 3,16 9 5,1 4 0,14 7 3,4 2 3,1 1 0 0 1,0 0 1 1 1,5,3
1,27,14 7 4 2,4,8 6 4 2,6 1 0 0,1 1 0 0,17 9 5 2,2 4 0 2,14 6 2 -1,4 1 2 4,1 0 2 0 1,0 1 1 0 2,5,2
1,27,13 11 3,3,6 4 2,7 7 1,2 2 1,15 12 3,0 2 3,13 10 1,3 0 1,1 0 1 1 0,1 1 0 1 0,5,4
1,27,13 10 4,3,6 4 2,7 6 2,2 1 2,15 11 4,0 1 4,13 9 2,3 4 2,1 1 0 0 1,0 0 1 1 1,5,3
1,27,13 9 5,3,6 4 2,7 5 3,2 0 3,15 10 5,0 0 0,13 8 3,3 3 3,3 0 0 0 0,0 0 0 3 0,6,3
1,27,13 8 6,3,6 4 2,7 4 4,2 4 4,15 9 6,0 4 1,13 7 4,3 2 4,1 1 0 0 1,0 0 1 1 1,5,3
1,27,13 8 4 2,4,8 6 4 2,5 2 0 0,0 2 0 0,16 10 5 2,1 0 0 2,13 7 2 -1,3 2 2 4,2 1 1 0 0,0 0 2 1 1,6,2
1,27,13 7 5 2,4,8 6 4 2,5 1 1 0,0 1 1 0,16 9 6 2,1 4 1 2,13 6 3 -1,3 1 3 4,0 2 1 0 1,0 1 0 2 1,5,2
1,27,12 10 5,3,6 4 2,6 6 3,1 1 3,14 11 5,4 1 0,12 9 3,2 4 3,1 1 0 0 1,0 0 1 1 1,5,3
1,27,12 9 6,3,6 4 2,6 5 4,1 0 4,14 10 6,4 0 1,12 8 4,2 3 4,1 1 0 0 1,0 0 1 1 1,5,3
1,27,12 9 4 2,4,8 6 4 2,4 3 0 0,4 3 0 0,15 11 5 2,0 1 0 2,12 8 2 -1,2 3 2 4,2 1 1 0 0,0 0 2 1 1,6,2
1,27,12 8 5 2,4,8 6 4 2,4 2 1 0,4 2 1 0,15 10 6 2,0 0 1 2,12 7 3 -1,2 2 3 4,2 1 1 0 0,0 0 2 1 1,6,2
1,27,12 7 5 3,4,8 6 4 2,4 1 1 1,4 1 1 1,15 9 6 3,0 4 1 3,12 6 3 0,2 1 3 0,1 1 0 1 1,1 1 1 1 0,5,3
1,27,11 9 7,3,6 4 2,5 5 5,0 0 0,13 10 7,3 0 2,11 8 5,1 3 0,1 0 1 1 0,1 1 0 1 0,5,4
1,27,11 9 5 2,4,8 6 4 2,3 3 1 0,3 3 1 0,14 11 6 2,4 1 1 2,11 8 3 -1,1 3 3 4,0 2 1 0 1,0 1 0 2 1,5,2
1,27,11 8 6 2,4,8 6 4 2,3 2 2 0,3 2 2 0,14 10 7 2,4 0 2 2,11 7 4 -1,1 2 4 4,1 0 2 0 1,0 1 1 0 2,5,2
1,27,11 8 5 3,4,8 6 4 2,3 2 1 1,3 2 1 1,14 10 6 3,4 0 1 3,11 7 3 0,1 2 3 0,1 1 0 1 1,1 1 1 1 0,5,3
1,27,10 8 6 3,4,8 6 4 2,2 2 2 1,2 2 2 1,13 10 7 3,3 0 2 3,10 7 4 0,0 2 4 0,1 0 1 2 0,2 0 1 0 1,5,3
1,28,28,1,2,26,1,28,3,28,3,0 0 0 1 0,0 0 0 1 0,5,5
1,28,26 2,2,4 2,22 0,2 0,27 2,2 2,26 1,1 1,0 0 2 0 0,0 2 0 0 0,5,5
1,28,25 3,2,4 2,21 1,1 1,26 3,1 3,25 2,0 2,0 1 0 1 0,1 0 1 0 0,5,5
1,28,24 4,2,4 2,20 2,0 2,25 4,0 4,24 3,4 3,1 0 0 0 1,0 0 0 1 1,5,4
1,28,23 5,2,4 2,19 3,4 3,24 5,4 0,23 4,3 4,1 0 0 0 1,0 0 0 1 1,5,4
1,28,22 6,2,4 2,18 4,3 4,23 6,3 1,22 5,2 0,0 1 0 1 0,1 0 1 0 0,5,5
1,28,22 4 2,3,6 4 2,16 0 0,1 0 0,24 5 2,4 0 2,22 3 0,2 3 0,1 0 1 0 1,1 0 1 1 0,5,4
1,28,21 7,2,4 2,17 5,2 0,22 7,2 2,21 6,1 1,0 0 2 0 0,0 2 0 0 0,5,5
1,28,21 5 2,3,6 4 2,15 1 0,0 1 0,23 6 2,3 1 2,21 4 0,1 4 0,0 1 1 1 0,1 1 0 0 1,5,4
1,28,20 8,2,4 2,16 6,1 1,21 8,1 3,20 7,0 2,0 1 0 1 0,1 0 1 0 0,5,5
1,28,20 6 2,3,6 4 2,14 2 0,4 2 0,22 7 2,2 2 2,20 5 0,0 0 0,0 0 3 0 0,3 0 0 0 0,5,5
1,28,20 5 3,3,6 4 2,14 1 1,4 1 1,22 6 3,2 1 3,20 4 1,0 4 1,0 1 1 1 0,1 1 0 0 1,5,4
1,28,19 9,2,4 2,15 7,0 2,20 9,0 4,19 8,4 3,1 0 0 0 1,0 0 0 1 1,5,4
1,28,19 7 2,3,6 4 2,13 3 0,3 3 0,21 8 2,1 3 2,19 6 0,4 1 0,0 1 1 1 0,1 1 0 0 1,5,4
1,28,19 6 3,3,6 4 2,13 2 1,3 2 1,21 7 3,1 2 3,19 5 1,4 0 1,0 1 1 1 0,1 1 0 0 1,5,4
1,28,18 10,2,4 2,14 8,4 3,19 10,4 0,18 9,3 4,1 0 0 0 1,0 0 0 1 1,5,4
1,28,18 8 2,3,6 4 2,12 4 0,2 4 0,20 9 2,0 4 2,18 7 0,3 2 0,1 0 1 0 1,1 0 1 1 0,5,4
1,28,18 7 3,3,6 4 2,12 3 1,2 3 1,20 8 3,0 3 3,18 6 1,3 1 1,1 0 0 2 0,0 2 0 1 0,5,4
1,28,18 6 4,3,6 4 2,12 2 2,2 2 2,20 7 4,0 2 4,18 5 2,3 0 2,1 0 1 0 1,1 0 1 1 0,5,4
1,28,17 11,2,4 2,13 9,3 4,18 11,3 1,17 10,2 0,0 1 0 1 0,1 0 1 0 0,5,5
1,28,17 9 2,3,6 4 2,11 5 0,1 0 0,19 10 2,4 0 2,17 8 0,2 3 0,1 0 1 0 1,1 0 1 1 0,5,4
1,28,17 8 3,3,6 4 2,11 4 1,1 4 1,19 9 3,4 4 3,17 7 1,2 2 1,0 0 0 1 2,0 1 2 0 0,4,4
1,28,17 7 4,3,6 4 2,11 3 2,1 3 2,19 8 4,4 3 4,17 6 2,2 1 2,0 0 0 1 2,0 1 2 0 0,4,4
1,28,16 12,2,4 2,12 10,2 0,17 12,2 2,16 11,1 1,0 0 2 0 0,0 2 0 0 0,5,5
1,28,16 10 2,3,6 4 2,10 6 0,0 1 0,18 11 2,3 1 2,16 9 0,1 4 0,0 1 1 1 0,1 1 0 0 1,5,4
1,28,16 9 3,3,6 4 2,10 5 1,0 0 1,18 10 3,3 0 3,16 8 1,1 3 1,1 0 0 2 0,0 2 0 1 0,5,4
1,28,16 8 4,3,6 4 2,10 4 2,0 4 2,18 9 4,3 4 4,16 7 2,1 2 2,0 0 0 1 2,0 1 2 0 0,4,4
1,28,16 7 5,3,6 4 2,10 3 3,0 3 3,18 8 5,3 3 0,16 6 3,1 1 3,1 0 0 2 0,0 2 0 1 0,5,4
1,28,16 6 4 2,4,8 6 4 2,8 0 0 0,3 0 0 0,19 8 5 2,4 3 0 2,16 5 2 -1,1 0 2 4,1 0 1 1 1,1 1 1 0 1,5,3
1,28,15 13,2,4 2,11 11,1 1,16 13,1 3,15 12,0 2,0 1 0 1 0,1 0 1 0 0,5,5
1,28,15 11 2,3,6 4 2,9 7 0,4 2 0,17 12 2,2 2 2,15 10 0,0 0 0,0 0 3 0 0,3 0 0 0 0,5,5
1,28,15 10 3,3,6 4 2,9 6 1,4 1 1,17 11 3,2 1 3,15 9 1,0 4 1,0 1 1 1 0,1 1 0 0 1,5,4
1,28,15 9 4,3,6 4 2,9 5 2,4 0 2,17 10 4,2 0 4,15 8 2,0 3 2,1 0 1 0 1,1 0 1 1 0,5,4
1,28,15 8 5,3,6 4 2,9 4 3,4 4 3,17 9 5,2 4 0,15 7 3,0 2 3,1 0 1 0 1,1 0 1 1 0,5,4
1,28,15 7 4 2,4,8 6 4 2,7 1 0 0,2 1 0 0,18 9 5 2,3 4 0 2,15 6 2 -1,0 1 2 4,1 0 1 1 1,1 1 1 0 1,5,3
1,28,14 12 2,3,6 4 2,8 8 0,3 3 0,16 13 2,1 3 2,14 11 0,4 1 0,0 1 1 1 0,1 1 0 0 1,5,4
1,28,14 11 3,3,6 4 2,8 7 1,3 2 1,16 12 3,1 2 3,14 10 1,4 0 1,0 1 1 1 0,1 1 0 0 1,5,4
1,28,14 10 4,3,6 4 2,8 6 2,3 1 2,16 11 4,1 1 4,14 9 2,4 4 2,0 2 0 0 1,0 0 1 0 2,5,3
1,28,14 9 5,3,6 4 2,8 5 3,3 0 3,16 10 5,1 0 0,14 8 3,4 3 3,2 1 0 0 0,0 0 0 2 1,6,3
1,28,14 8 6,3,6 4 2,8 4 4,3 4 4,16 9 6,1 4 1,14 7 4,4 2 4,0 2 0 0 1,0 0 1 0 2,5,3
1,28,14 8 4 2,4,8 6 4 2,6 2 0 0,1 2 0 0,17 10 5 2,2 0 0 2,14 7 2 -1,4 2 2 4,2 0 2 0 0,0 0 2 0 2,6,2
1,28,14 7 5 2,4,8 6 4 2,6 1 1 0,1 1 1 0,17 9 6 2,2 4 1 2,14 6 3 -1,4 1 3 4,0 1 2 0 1,0 1 0 1 2,5,2
1,28,13 11 4,3,6 4 2,7 7 2,2 2 2,15 12 4,0 2 4,13 10 2,3 0 2,1 0 1 0 1,1 0 1 1 0,5,4
1,28,13 10 5,3,6 4 2,7 6 3,2 1 3,15 11 5,0 1 0,13 9 3,3 4 3,2 1 0 0 0,0 0 0 2 1,6,3
1,28,13 9 6,3,6 4 2,7 5 4,2 0 4,15 10 6,0 0 1,13 8 4,3 3 4,2 1 0 0 0,0 0 0 2 1,6,3
1,28,13 9 4 2,4,8 6 4 2,5 3 0 0,0 3 0 0,16 11 5 2,1 1 0 2,13 8 2 -1,3 3 2 4,1 2 1 0 0,0 0 1 2 1,6,2
1,28,13 8 5 2,4,8 6 4 2,5 2 1 0,0 2 1 0,16 10 6 2,1 0 1 2,13 7 3 -1,3 2 3 4,1 2 1 0 0,0 0 1 2 1,6,2
1,28,13 7 5 3,4,8 6 4 2,5 1 1 1,0 1 1 1,16 9 6 3,1 4 1 3,13 6 3 0,3 1 3 0,0 2 0 1 1,1 1 0 2 0,5,3
1,28,12 10 6,3,6 4 2,6 6 4,1 1 4,14 11 6,4 1 1,12 9 4,2 4 4,0 2 0 0 1,0 0 1 0 2,5,3
1,28,12 10 4 2,4,8 6 4 2,4 4 0 0,4 4 0 0,15 12 5 2,0 2 0 2,12 9 2 -1,2 4 2 4,2 0 2 0 0,0 0 2 0 2,6,2
1,28,12 9 7,3,6 4 2,6 5 5,1 0 0,14 10 7,4 0 2,12 8 5,2 3 0,1 0 1 0 1,1 0 1 1 0,5,4
1,28,12 9 5 2,4,8 6 4 2,4 3 1 0,4 3 1 0,15 11 6 2,0 1 1 2,12 8 3 -1,2 3 3 4,1 2 1 0 0,0 0 1 2 1,6,2
1,28,12 8 6 2,4,8 6 4 2,4 2 2 0,4 2 2 0,15 10 7 2,0 0 2 2,12 7 4 -1,2 2 4 4,2 0 2 0 0,0 0 2 0 2,6,2
1,28,12 8 5 3,4,8 6 4 2,4 2 1 1,4 2 1 1,15 10 6 3,0 0 1 3,12 7 3 0,2 2 3 0,2 1 0 1 0,1 0 2 1 0,6,3
1,28,11 9 6 2,4,8 6 4 2,3 3 2 0,3 3 2 0,14 11 7 2,4 1 2 2,11 8 4 -1,1 3 4 4,0 1 2 0 1,0 1 0 1 2,5,2
1,28,11 9 5 3,4,8 6 4 2,3 3 1 1,3 3 1 1,14 11 6 3,4 1 1 3,11 8 3 0,1 3 3 0,0 2 0 1 1,1 1 0 2 0,5,3
1,28,11 8 6 3,4,8 6 4 2,3 2 2 1,3 2 2 1,14 10 7 3,4 0 2 3,11 7 4 0,1 2 4 0,1 0 1 1 1,1 1 1 0 1,5,3
1,28,10 8 6 4,4,8 6 4 2,2 2 2 2,2 2 2 2,13 10 7 4,3 0 2 4,10 7 4 1,0 2 4 1,1 0 1 1 1,1 1 1 0 1,5,3
